1.035450849718747349e+03
1.035502082022289869e+03
1.035553190949466398e+03
1.035604176344590314e+03
1.035655038052351301e+03
1.035705775917816027e+03
1.035756389786427690e+03
1.035806879504008066e+03
1.040857244916756372e+03
1.037907485871251083e+03
1.035957602214449480e+03
1.035007593793688557e+03
1.033057460456685249e+03
1.034107202051536888e+03
1.033156818426722111e+03
1.030206309431100863e+03
1.029255674913914845e+03
1.028304914724788205e+03
1.031354028713727985e+03
1.034403016731124808e+03
1.030451878627752194e+03
1.029500614254768379e+03
1.027549223463716316e+03
1.029597706106524129e+03
1.034646062035504883e+03
1.038694291103358410e+03
1.034742393163170391e+03
1.027790368068413500e+03
1.024838215672948081e+03
1.018885935831021925e+03
1.020933528397271175e+03
1.016980993226720670e+03
1.016028330174784173e+03
1.014075539097265278e+03
1.011122619850357410e+03
1.011169572290644282e+03
1.011216396275100806e+03
1.013263091661092858e+03
1.015309658306378196e+03
1.013356096069106798e+03
1.011402404807821313e+03
1.008448584381457067e+03
1.008494634649343197e+03
1.008540555471202538e+03
1.008586346707152416e+03
1.009632008217704652e+03
1.007677539863766356e+03
1.005722941506640382e+03
1.009768213008025327e+03
1.011813354230016444e+03
1.011858365035105635e+03
1.010903245286182255e+03
1.009947994846533220e+03
1.005992613579843692e+03
1.009037101350197190e+03
1.007081458022076276e+03
1.011125683460362893e+03
1.009169777530338592e+03
1.007213740097685218e+03
1.004257571028485245e+03
1.003301270189221896e+03
1.000344837446780161e+03
9.953882726684464615e+02
9.904315757219095531e+02
9.904747464752609858e+02
9.865177847969949880e+02
9.765606905560094901e+02
9.706034636216060107e+02
9.706461038634904526e+02
9.826886111517732161e+02
1.001730985356969768e+03
1.023773226350000868e+03
1.053815334002193140e+03
1.091857308185279408e+03
1.142899148771399041e+03
1.191940855633098181e+03
1.223982428643330877e+03
1.236023867675458177e+03
1.221065172603249721e+03
1.172106343300883282e+03
1.102147379642946362e+03
1.035188281504434599e+03
9.952290487607541536e+02
9.812696812877208004e+02
9.833101789615607231e+02
9.943505416589110837e+02
1.002390769256820022e+03
1.003430861632747451e+03
1.001470818664564831e+03
9.995106402305563051e+02
1.002550326209418358e+03
1.003589876480260727e+03
1.005629290922606287e+03
1.006668569416391847e+03
1.004707711841968376e+03
1.001746718080101232e+03
1.000785588011970617e+03
1.003824321519172031e+03
9.998629184837163848e+02
1.001901378788030797e+03
1.002939702314958367e+03
1.001977888947758970e+03
1.003015938570109711e+03
1.004053851066104585e+03
1.003091626320255727e+03
1.003129264217493073e+03
1.000166764643165038e+03
9.982041274830389739e+02
1.002241352623300941e+03
1.004278439950556958e+03
1.008315389351832437e+03
1.005352200714573200e+03
1.005388873926645374e+03
1.003425408876336064e+03
1.001461805452353474e+03
1.002498063543827129e+03
1.001534183040308903e+03
1.000570163831772220e+03
9.986060058086136451e+02
9.986417088616520914e+02
1.001677272882130069e+03
1.003712697761713230e+03
1.003747983392491278e+03
1.003783129666978084e+03
1.001818136478112024e+03
9.998530037192562077e+02
1.004887731284199049e+03
1.004922319067154376e+03
1.003956766962761776e+03
1.003991074866086819e+03
1.003025242672621971e+03
1.003059270278286021e+03
1.002093157579424997e+03
1.004126904472812271e+03
1.002160510855649022e+03
1.000193976625564346e+03
9.992273016806157102e+02
1.000260485919289067e+03
1.001293529240499765e+03
1.004326431543591866e+03
1.006359192728339394e+03
1.003391812694945997e+03
1.004424291344045628e+03
1.001456628576702769e+03
1.004488824294412552e+03
1.003520878399101207e+03
1.003552790793126405e+03
1.001584561379277488e+03
1.001616190060775580e+03
9.996476767412744948e+02
1.002679021324860059e+03
1.002710223716051473e+03
1.003741283819800742e+03
1.004772201541493359e+03
1.000802976786948648e+03
1.000833609462419872e+03
1.001864099474594582e+03
1.003894446730594836e+03
1.003924651137977776e+03
1.003954712604735505e+03
1.000984631039295436e+03
1.000014406350520972e+03
1.000044038447711273e+03
1.002073527240601948e+03
1.002102872639364818e+03
1.004132074554608948e+03
1.001161132897380071e+03
9.991900475791615008e+02
9.992188185118740194e+02
9.992474456078765570e+02
9.982759287799658523e+02
9.993042679413772476e+02
9.973324630057848026e+02
9.943605138873014084e+02
9.973884205004792420e+02
9.994161827603099937e+02
1.000443800582224867e+03
9.994712738820951472e+02
9.964986025762326562e+02
9.965257865813891840e+02
9.985528258147576253e+02
9.985797201939718661e+02
9.996064696371068976e+02
9.996330740626792704e+02
9.986595333896473221e+02
9.976858475374112913e+02
1.000712016425813886e+03
1.005738039975139827e+03
1.006763918106117217e+03
1.006789650739916510e+03
1.004815237798151770e+03
1.003840679202880324e+03
1.008865974876603332e+03
1.011891124742265788e+03
1.011916128723256634e+03
1.013940986743409667e+03
1.012965698727002859e+03
1.013990264598759381e+03
1.015014684283847146e+03
1.017038957707879717e+03
1.021063084796915973e+03
1.022087065477460555e+03
1.022110899676464214e+03
1.019134587321323920e+03
1.021158128339882865e+03
1.023181522660431142e+03
1.026204770211705409e+03
1.023227870922889906e+03
1.023250824723615551e+03
1.021273631543961301e+03
1.021296291314453356e+03
1.024318803966066525e+03
1.022341169430222976e+03
1.021363387638793824e+03
1.023385458524098567e+03
1.021407382018905423e+03
1.022429158056431561e+03
1.022450786570343439e+03
1.019472267494756920e+03
1.020493600764237385e+03
1.020514786313799846e+03
1.019535824078909513e+03
1.018556713995481800e+03
1.019577455999882318e+03
1.020598050028927332e+03
1.017618496019883878e+03
1.016638793910469872e+03
1.014658943638854453e+03
1.017678945143657984e+03
1.018698798363952619e+03
1.020718503239261736e+03
1.016738059709561071e+03
1.016757467715278153e+03
1.015776727197292871e+03
1.017795838096937359e+03
1.017814800355996681e+03
1.019833613916708373e+03
1.018852278721763241e+03
1.015870794714304793e+03
1.014889161837930260e+03
1.016907380036690256e+03
1.017925449255088893e+03
1.015943369438084233e+03
1.016961140531088290e+03
1.012978762479967145e+03
1.012996235231041510e+03
1.012013558731086050e+03
1.014030732927330632e+03
1.013047757767459530e+03
1.011064633199612217e+03
1.011081359172383145e+03
1.012097935634822193e+03
1.014114362536434442e+03
1.016130639827180744e+03
1.016146767457477722e+03
1.015162745378197769e+03
1.014178573540669277e+03
1.011194251896677088e+03
1.015209780398462044e+03
1.014225158998721781e+03
1.013240387650610387e+03
1.012255466307738743e+03
1.011270394924174525e+03
1.008285173454442656e+03
1.011299801853525196e+03
1.013314280076861564e+03
1.015328608080348431e+03
1.011342785820340396e+03
1.008356813253649420e+03
1.007370690337545511e+03
1.010384417029756833e+03
1.013397993288469479e+03
1.012411419072327590e+03
1.011424694340434144e+03
1.009437819052350278e+03
1.007450793168095856e+03
1.008463616648149468e+03
1.010476289453448430e+03
1.011488811545389467e+03
1.012501182885827916e+03
1.012513403437078523e+03
1.011525473161915443e+03
1.013537392023572238e+03
1.012549159985741767e+03
1.015560777012577091e+03
1.013572243068690568e+03
1.013583558119154532e+03
1.012594722129501520e+03
1.012605735065723934e+03
1.015616596894274380e+03
1.017627307582066123e+03
1.014637867096472291e+03
1.012648275405326899e+03
1.010658532476924279e+03
1.012668638280019877e+03
1.014678592783829345e+03
1.015688395958029787e+03
1.017698047772758969e+03
1.019707548198615768e+03
1.018716897206660178e+03
1.018726094768413645e+03
1.019735140855858731e+03
1.023744035441439451e+03
1.023752778498061275e+03
1.022761369999091585e+03
1.028769809918358987e+03
1.029778098230154001e+03
1.032786234909229051e+03
1.033794219930798590e+03
1.032802053270538408e+03
1.030809734904587231e+03
1.027817264809545350e+03
1.029824642962475309e+03
1.028831869340901903e+03
1.028838943922812405e+03
1.028845866686656336e+03
1.027852637611345926e+03
1.026859256676255882e+03
1.025865723861222932e+03
1.026872039146547195e+03
1.029878202512991265e+03
1.031884213941780217e+03
1.032890073414602512e+03
1.024895780913608860e+03
1.016901336421413589e+03
1.016906739921093390e+03
1.013911991396188228e+03
1.011917090830701454e+03
1.007922038209099014e+03
1.007926833516310580e+03
1.008931476737728644e+03
1.010935967859209313e+03
1.009940306867071740e+03
1.010944493748098466e+03
1.008948528489535761e+03
1.005952411079092940e+03
1.004956141504942934e+03
1.005959719755722290e+03
1.005963145820531054e+03
1.003966419688932774e+03
1.004969541350954842e+03
1.002972510797087807e+03
1.007975328018286632e+03
1.006977993005969211e+03
1.007980505752017734e+03
1.009982866248777896e+03
1.004985074489059116e+03
1.002987130466134886e+03
1.005989034173742311e+03
1.007990785606082227e+03
1.008992384757819536e+03
1.007993831624082986e+03
1.003995126200465165e+03
1.000996268483022618e+03
1.001997258468275618e+03
9.979980961532085075e+02
9.889987815352696998e+02
9.849993146123713359e+02
9.789996953828895130e+02
9.719999238456643980e+02
9.670000000000000000e+02
9.729999238456643980e+02
9.909996953828895130e+02
1.013999314612371336e+03
1.041998781535269700e+03
1.070998096153208508e+03
1.120997258468275504e+03
1.171996268483022504e+03
1.217995126200465165e+03
1.248993831624082986e+03
1.261992384757819536e+03
1.254990785606082227e+03
1.224989034173742311e+03
1.171987130466134886e+03
1.106985074489059116e+03
1.051982866248777782e+03
1.019980505752017734e+03
9.959779930059692106e+02
9.839753280182866320e+02
9.789725107970878071e+02
9.829695413509548416e+02
9.889664196889327741e+02
9.959631458205310537e+02
9.959597197557222898e+02
9.969561415049429343e+02
9.959524110790929399e+02
9.979485284895357609e+02
9.979444937480984663e+02
9.979403068670717403e+02
9.949359678592093132e+02
9.969314767377286444e+02
9.969268335163105803e+02
9.969220382090990142e+02
9.989170908307014543e+02
9.949119913961882276e+02
9.919067399210933900e+02
9.919013364214135891e+02
9.938957809136089736e+02
9.948900734146025115e+02
9.958842139417802173e+02
9.928782025129912654e+02
9.948720391465471948e+02
9.968657238612229321e+02
9.988592566762557681e+02
9.958526376113460401e+02
9.958458666866564499e+02
9.928389439228124047e+02
9.918318693409017897e+02
9.918246429624751954e+02
9.958172648095453496e+02
9.958097349045872306e+02
9.948020532705385222e+02
9.927942199307984765e+02
9.907862349092290515e+02
9.937780982301540007e+02
9.917698099183589875e+02
9.927613699990915848e+02
9.917527784980612751e+02
9.907440354414394506e+02
9.917351408558587309e+02
9.937260947684136454e+02
9.937168972066601782e+02
9.947075481986157683e+02
9.956980477727589687e+02
9.926883959580297869e+02
9.916785927838293446e+02
9.956686382800198771e+02
9.956585324769242789e+02
9.966482754053268991e+02
9.966378670964722915e+02
9.916273075820661234e+02
9.926165968942743802e+02
9.946057350657239340e+02
9.955947221295015197e+02
9.985835581191545316e+02
9.955722430686905682e+02
9.945607770125770912e+02
9.915491599857417668e+02
9.935373920235722380e+02
9.955254731619154427e+02
9.955134034370785230e+02
9.965011828858279159e+02
9.924888115453894670e+02
9.904762894534484303e+02
9.904636166481494683e+02
9.934507931680958563e+02
9.944378190523502781e+02
9.924246943404341437e+02
9.904114190723275897e+02
9.893979932884694790e+02
9.893844170297568326e+02
9.913706903375456250e+02
9.903568132536494204e+02
9.883427858203403957e+02
9.893286080803484310e+02
9.863142800768615643e+02
9.872998018535251958e+02
9.872851734544426563e+02
9.892703949241745249e+02
9.872554663077387431e+02
9.832403876506103870e+02
9.822251589987217812e+02
9.832097803984620441e+02
9.861942518966770876e+02
9.841785735406692766e+02
9.831627453781977692e+02
9.821467674574777220e+02
9.791306398271807439e+02
9.811143625364344416e+02
9.820979356348221927e+02
9.830813591723831451e+02
9.820646331996122171e+02
9.790477577674595295e+02
9.780307329273306323e+02
9.810135587310860501e+02
9.829962352310415099e+02
9.839787624799671448e+02
9.849611405310882901e+02
9.859433694380842326e+02
9.849254492550888926e+02
9.909073800366902560e+02
9.938891618379302599e+02
9.988707947143047932e+02
9.998522787217632413e+02
1.000833613916708373e+03
9.998148003559966810e+02
1.004795838096937359e+03
1.007776727197292871e+03
1.009757467715278153e+03
1.008738059709561071e+03
1.006718503239261736e+03
1.006698798363952619e+03
1.008678945143657984e+03
1.010658943638854453e+03
1.012638793910469872e+03
1.012618496019883878e+03
1.008598050028927332e+03
1.008577455999882318e+03
1.009556713995481800e+03
1.011535824078909513e+03
1.011514786313799846e+03
1.013493600764237385e+03
1.008472267494756920e+03
1.006450786570343439e+03
1.011429158056431561e+03
1.010407382018905423e+03
1.012385458524098567e+03
1.012363387638793824e+03
1.008341169430222976e+03
1.007318803966066525e+03
1.010296291314453356e+03
1.011273631543961301e+03
1.009250824723615551e+03
1.011227870922889906e+03
1.009204770211705522e+03
1.009181522660431142e+03
1.010158128339882865e+03
1.013134587321323920e+03
1.014110899676464214e+03
1.011087065477460555e+03
1.010063084796915973e+03
1.008038957707879717e+03
1.009014684283847146e+03
1.011990264598759381e+03
1.008965698727002859e+03
1.008940986743409667e+03
1.008916128723256634e+03
1.005891124742265788e+03
1.008865974876603332e+03
1.007840679202880324e+03
1.008815237798151770e+03
1.006789650739916510e+03
1.004763918106117217e+03
1.003738039975139827e+03
1.004712016425813886e+03
1.004685847537411291e+03
1.005659533389647322e+03
1.006633074062679270e+03
1.002606469637106898e+03
1.001579720193971866e+03
1.002552825814757625e+03
1.004525786581389184e+03
1.005498602576232656e+03
1.005471273882095147e+03
1.002443800582224867e+03
1.002416182760309994e+03
1.002388420500479242e+03
1.007360513887301408e+03
1.005332463005784803e+03
1.004304267941377248e+03
1.003275928779965852e+03
1.000247445607876557e+03
1.004218818511874019e+03
1.005190047579161501e+03
1.005161132897380071e+03
1.004132074554608948e+03
1.000102872639364818e+03
9.990735272406019476e+02
1.000044038447711273e+03
1.001014406350520972e+03
1.002984631039295436e+03
1.001954712604735505e+03
1.001924651137977776e+03
1.001894446730594836e+03
1.001864099474594582e+03
1.004833609462419872e+03
1.004802976786948648e+03
1.003772201541493359e+03
1.001741283819800742e+03
1.000710223716051473e+03
1.000679021324860059e+03
1.002647676741274495e+03
1.004616190060775580e+03
1.001584561379277488e+03
1.001552790793126405e+03
9.995208783991012069e+02
1.000488824294412552e+03
1.002456628576702769e+03
1.004424291344045628e+03
1.002391812694945997e+03
1.002359192728339394e+03
1.002326431543591866e+03
1.004293529240499765e+03
1.003260485919289067e+03
1.004227301680615710e+03
1.003193976625564346e+03
1.001160510855649022e+03
1.001126904472812271e+03
1.002093157579424997e+03
1.004059270278286021e+03
1.007025242672621971e+03
1.010991074866086933e+03
1.009956766962761776e+03
1.010922319067154376e+03
1.012887731284199049e+03
1.014853003719256208e+03
1.016818136478112024e+03
1.016783129666978084e+03
1.016747983392491278e+03
1.018712697761713230e+03
1.019677272882130069e+03
1.021641708861652091e+03
1.024606005808613645e+03
1.026570163831772334e+03
1.021534183040308903e+03
1.020498063543827129e+03
1.021461805452353474e+03
1.020425408876336064e+03
1.022388873926645488e+03
1.020352200714573200e+03
1.019315389351832550e+03
1.014278439950556958e+03
1.014241352623300941e+03
1.016204127483038974e+03
1.019166764643165038e+03
1.024129264217493073e+03
1.025091626320255727e+03
1.023053851066104585e+03
1.016015938570109711e+03
1.014977888947758970e+03
1.012939702314958367e+03
1.011901378788030797e+03
1.007862918483716385e+03
1.004824321519172031e+03
1.000785588011970617e+03
1.002746718080101232e+03
1.001707711841968376e+03
1.001668569416391847e+03
9.976292909226062875e+02
9.945898764802607275e+02
9.965503262094183583e+02
9.995106402305563051e+02
9.984708186645648311e+02
9.974308616327474510e+02
9.953907692568200218e+02
9.933505416589110837e+02
9.923101789615607231e+02
9.942696812877208004e+02
9.952290487607541536e+02
9.951882815044347126e+02
9.921473796429463619e+02
9.911063433008833954e+02
9.920651726032496072e+02
9.930238676754580638e+02
9.969824286433308771e+02
9.939408556330982947e+02
9.898991487713990409e+02
9.868573081852794076e+02
9.858153340021931399e+02
9.807732263500008685e+02
9.747309853569697680e+02
9.696886111517732161e+02
9.636461038634904526e+02
9.566034636216060107e+02
9.535606905560094901e+02
9.625177847969949880e+02
9.864747464752609858e+02
1.017431575721909553e+03
1.049388272668446461e+03
1.091344837446780048e+03
1.149301270189221896e+03
1.205257571028485245e+03
1.244213740097685331e+03
1.259169777530338479e+03
1.237125683460362779e+03
1.171081458022076276e+03
1.077037101350197190e+03
1.002992613579843692e+03
9.669479948465332200e+02
9.659032452861822549e+02
9.778583650351056349e+02
9.838133542300164436e+02
9.877682130080253273e+02
9.887229415066403817e+02
9.876775398637663557e+02
9.886320082177046515e+02
9.875863467071524155e+02
9.855405554712025378e+02
9.874946346493431975e+02
9.854485843814570671e+02
9.884024048078213127e+02
9.873560960691069113e+02
9.873096583063781964e+02
9.842630916610928580e+02
9.852163962751008057e+02
9.861695722906442825e+02
9.861226198503574096e+02
9.830755390972652776e+02
9.850283301747841733e+02
9.819809932267206705e+02
9.829335283972711750e+02
9.848859358310219250e+02
9.848382156729480812e+02
9.817903680684134997e+02
9.817423931631702771e+02
9.786942911033584096e+02
9.816460620355049969e+02
9.835977061065241287e+02
9.835492234637164302e+02
9.845006142547683794e+02
9.804518786277520803e+02
9.794030167311246942e+02
9.813540287137280984e+02
9.823049147247882047e+02
9.832556749139147314e+02
9.832063094311007490e+02
9.801568184267221113e+02
9.811072020515368877e+02
9.850574604566852486e+02
9.860075937936885566e+02
9.849576022144495937e+02
9.849074858712511968e+02
9.858572449167563718e+02
9.818068795040080659e+02
9.837563897864276896e+02
9.867057759178159131e+02
9.846550380523514150e+02
9.846041763445903143e+02
9.815531909494662841e+02
9.795020820222897555e+02
9.794508497187473495e+02
9.813994941949015356e+02
9.813480156071900637e+02
9.822964141124258504e+02
9.792446898677957279e+02
9.791928430308608995e+02
9.801408737595556886e+02
9.810887822121876525e+02
9.840365685474366728e+02
9.839842329243545009e+02
9.819317755023646441e+02
9.788791964412614561e+02
9.818264959012097961e+02
9.827736740427448012e+02
9.847207310267708635e+02
9.836676670145617436e+02
9.836144821677595473e+02
9.825611766483744987e+02
9.865077506187844847e+02
9.834542042417344874e+02
9.854005376803361287e+02
9.853467510980668749e+02
9.832928446587700364e+02
9.802388185266540859e+02
9.821846728662919759e+02
9.821304078426206843e+02
9.810760236209409868e+02
9.800215203669164339e+02
9.789668982465736917e+02
9.789121574263010643e+02
9.778572980728484936e+02
9.798023203533273318e+02
9.797472244352089774e+02
9.806920104863253300e+02
9.756366786748675395e+02
9.765812291693860061e+02
9.755256621387894711e+02
9.784699777523447892e+02
9.784141761796761330e+02
9.783582575907649925e+02
9.783022221559489253e+02
9.772460700459215559e+02
9.771898014317321213e+02
9.791334164847844477e+02
9.830769153768368369e+02
9.830202982800014979e+02
9.839635653667440920e+02
9.869067168098825960e+02
9.898497527825878706e+02
9.937926734583819552e+02
9.947354790111386365e+02
9.956781696150818561e+02
9.946207454447862801e+02
9.945632066751755929e+02
9.965055534815229521e+02
9.974477860394500794e+02
1.000389904524926578e+03
1.000331909114269592e+03
9.982737999841431247e+02
9.992155773115576949e+02
1.000157241273869658e+03
1.001098792048780751e+03
1.001040229814337522e+03
1.000981554748930421e+03
9.989227670312941427e+02
9.988638668405062617e+02
9.988048543559866630e+02
9.977457297574979975e+02
1.000686493225143863e+03
9.996271449393689181e+02
9.975676850809585403e+02
9.965081138310375763e+02
9.954484313710705692e+02
9.983886378828605075e+02
9.993287335485488256e+02
9.992687185506143805e+02
9.962085930718733380e+02
9.951483572954783767e+02
9.990880114049181202e+02
9.980275555840164543e+02
1.000966990016932527e+03
9.979063148881593861e+02
9.948455303825242027e+02
9.937846366851867970e+02
9.957236339816402051e+02
9.956625224577090876e+02
9.956013022995498432e+02
9.945399736936495856e+02
9.894785368268260299e+02
9.894169918862264694e+02
9.913553390593274344e+02
9.922935785339340100e+02
9.932317104981797229e+02
9.921697351405251766e+02
9.911076526497581654e+02
9.870454632149925374e+02
9.889831670256683083e+02
9.889207642715502971e+02
9.878582551427282397e+02
9.867956398296157658e+02
9.877329185229498307e+02
9.856700914137907148e+02
9.876071586935203186e+02
9.885441205538429585e+02
9.904809771867834343e+02
9.874177287846877107e+02
9.883543755402210991e+02
9.852909176463688254e+02
9.852273552964344390e+02
9.881636886840399256e+02
9.870999180031249125e+02
9.880360434479458718e+02
9.839720652130757799e+02
9.819079834934035489e+02
9.838437984841330035e+02
9.857795103807829946e+02
9.847151193791861488e+02
9.856506256754886408e+02
9.845860294661495118e+02
9.815213309479399868e+02
9.834565303179429065e+02
9.843916277735522726e+02
9.873266235124726791e+02
9.872615177327180618e+02
9.871963106326120396e+02
9.831310024107868912e+02
9.840655932661825318e+02
9.880000833980468542e+02
9.879344730059340236e+02
9.888687622897048186e+02
9.858029514495253807e+02
9.837370406858669867e+02
9.846710301995052532e+02
9.856049201915195681e+02
9.855387108632925219e+02
9.854724024165092260e+02
9.814059950531565164e+02
9.793394889755229542e+02
9.852728843861975747e+02
9.842061814880693191e+02
9.851393804843269209e+02
9.840724815784578823e+02
9.840054849742477927e+02
9.819383908757798736e+02
9.838711994874345237e+02
9.868039110138881824e+02
9.847365256601133296e+02
9.866690436313774626e+02
9.866014651332425274e+02
9.865337903715643506e+02
9.874660195524918436e+02
9.933981528824668885e+02
9.943301905682229744e+02
9.942621328167851971e+02
9.931939798354693494e+02
9.941257318318810121e+02
9.970573890139155537e+02
9.979889515897569936e+02
9.999204197678776609e+02
9.988517937570373988e+02
9.987830737662828824e+02
9.997142600049471639e+02
1.001645352682648763e+03
1.003576352009291554e+03
1.005507258195063400e+03
1.002438071450436041e+03
1.001368791986164297e+03
9.992994200132854985e+02
9.982299557431186940e+02
1.001160399387264079e+03
1.000090751157602426e+03
9.990210112662941810e+02
9.979511799257793427e+02
9.988812573487761028e+02
9.978112437482808446e+02
9.987411393375671196e+02
1.000670944330185080e+03
1.002600658939961022e+03
1.005530283380996252e+03
1.001459817867667084e+03
9.973892626146237035e+02
9.913186178367894854e+02
9.912478837493607671e+02
9.841770605678059383e+02
9.811061485078644182e+02
9.770351477855469966e+02
9.759640586171339010e+02
9.768928812191752513e+02
9.788216158084896961e+02
9.777502626021639571e+02
9.756788218175522616e+02
9.746072936722757731e+02
9.735356783842215691e+02
9.754639761715421855e+02
9.753921872526550487e+02
9.753203118462416796e+02
9.732483501712468978e+02
9.711763024468785943e+02
9.721041688926064808e+02
9.770319497281620897e+02
9.769596451735372966e+02
9.738872554489845470e+02
9.728147807750152651e+02
9.687422213723999675e+02
9.706695774621672399e+02
9.715968492656029412e+02
9.735240370042497489e+02
9.704511408999065907e+02
9.663781611746275075e+02
9.593050980507214263e+02
9.562319517507513638e+02
9.501587224975335175e+02
9.490854105141370383e+02
9.460120160238827793e+02
9.429385392503431831e+02
9.308649804173412576e+02
9.217913397489497811e+02
9.247176174694913016e+02
9.356438138035365455e+02
9.515699289759041903e+02
9.734959632116602961e+02
9.964219167361173959e+02
1.027347789774833927e+03
1.068273582553613323e+03
1.124199295298504012e+03
1.177124928235797370e+03
1.212050481592028746e+03
1.221975955593975414e+03
1.203901350468656574e+03
1.144826666443331987e+03
1.062751903745502659e+03
9.886770626029085633e+02
9.496021432435286442e+02
9.455271458955802473e+02
9.544520707875185508e+02
9.673769181480352017e+02
9.713016882060582020e+02
9.712263811907509989e+02
9.691509973315118032e+02
9.670755368579729065e+02
9.680000000000000000e+02
9.719243869876914914e+02
9.708486980513777098e+02
9.697729334216203370e+02
9.676970933292114978e+02
9.666211780051733058e+02
9.675451876807570670e+02
9.684691225874423708e+02
9.703929829569366348e+02
9.693167690211745366e+02
9.662404810123168772e+02
9.651641191627501257e+02
9.660876837050857375e+02
9.690111748721594722e+02
9.669345928970303703e+02
9.658579380129804122e+02
9.667812104535137223e+02
9.667044104523557735e+02
9.656275382434527046e+02
9.695505940609705249e+02
9.704735781392945455e+02
9.693964907130286974e+02
9.683193320169946219e+02
9.672421022862309883e+02
9.671648017559931532e+02
9.670874306617516822e+02
9.680099892391925778e+02
9.679324777242156870e+02
9.658548963529347020e+02
9.657772453616757957e+02
9.666995249869773943e+02
9.676217354655891540e+02
9.695438770344715067e+02
9.714659499307948636e+02
9.693879543919384787e+02
9.673098906554904488e+02
9.682317589592463491e+02
9.691535595412090061e+02
9.710752926395872464e+02
9.689969584927957840e+02
9.669185573394538551e+02
9.668400894183851051e+02
9.687615549686163376e+02
9.706829542293771738e+02
9.706042874400991423e+02
9.685255548404147703e+02
9.664467566701572423e+02
9.673678931693596041e+02
9.672889645782536263e+02
9.722099711372694628e+02
9.701309130870349691e+02
9.680517906683745650e+02
9.659726041223088941e+02
9.688933536900538002e+02
9.678140396130200998e+02
9.697346621328119909e+02
9.686552214912270529e+02
9.665757179302554505e+02
9.684961516920786835e+02
9.694165230190692455e+02
9.693368321537900556e+02
9.692570793389930941e+02
9.691772648176195162e+02
9.680973888327980603e+02
9.660174516278447072e+02
9.659374534462623387e+02
9.708573945317390326e+02
9.697772751281482897e+02
9.686970954795475564e+02
9.666168558301781104e+02
9.655365564244636971e+02
9.654561975070103017e+02
9.683757793226051263e+02
9.702953021162159075e+02
9.662147661329902348e+02
9.671341716182545269e+02
9.650535188175136909e+02
9.679728079764502127e+02
9.678920393409233611e+02
9.698112131569682788e+02
9.687303296707956406e+02
9.656493891287905171e+02
9.635683917775118061e+02
9.654873378636914367e+02
9.654062276342339146e+02
9.683250613362148442e+02
9.692438392168809287e+02
9.681625615236489466e+02
9.670812285041046152e+02
9.719998404060025905e+02
9.749183974772649890e+02
9.778368999659812744e+02
9.787553481204068930e+02
9.776737421889628195e+02
9.765920824202351014e+02
9.785103690629733819e+02
9.824286023660907858e+02
9.843467825786627827e+02
9.812649099499267322e+02
9.821829847292808608e+02
9.841010071662834662e+02
9.840189775106524621e+02
9.849368960122645831e+02
9.868547629211541334e+02
9.847725784875127601e+02
9.826903429616885433e+02
9.816080565941852001e+02
9.815257196356611757e+02
9.824433323369291884e+02
9.843608949489552060e+02
9.822784077228578781e+02
9.811958709099075122e+02
9.781132847615255059e+02
9.810306495292837781e+02
9.829479654649035183e+02
9.838652328202546187e+02
9.847824518473551052e+02
9.806996227983702283e+02
9.786167459256116672e+02
9.795338214815366200e+02
9.804508497187473495e+02
9.803678308899903868e+02
9.822847652481552814e+02
9.792016530462744868e+02
9.781184945375222242e+02
9.790352899752136864e+02
9.799520396128043558e+02
9.788687437038893222e+02
9.777854025022023734e+02
9.757020162616151993e+02
9.766185852361368234e+02
9.755351096799125798e+02
9.794515898472235449e+02
9.783680259924856273e+02
9.762844183702486589e+02
9.722007672351961673e+02
9.701170728421437843e+02
9.720333354460393593e+02
9.739495553019614817e+02
9.738657326651189123e+02
9.747818677908500149e+02
9.726979609346216193e+02
9.706140123520286807e+02
9.715300222987931420e+02
9.744459910307632526e+02
9.733619188039128858e+02
9.732778058743404017e+02
9.711936524982686478e+02
9.681094589320432533e+02
9.690252254321324017e+02
9.699409522551260352e+02
9.708566396577348314e+02
9.697722878967895213e+02
9.676878972292403205e+02
9.666034679121556792e+02
9.675190002027220544e+02
9.684344943582427732e+02
9.693499506361371232e+02
9.692653692939401253e+02
9.701807505893011694e+02
9.690960947799833320e+02
9.680114021238631494e+02
9.689266728789290255e+02
9.718419073032810047e+02
9.677571056551295214e+02
9.676722681927952863e+02
9.655873951747079218e+02
9.625024868594051668e+02
9.634175435055327625e+02
9.663325653718427475e+02
9.662475527171932299e+02
9.651625058005475921e+02
9.650774248809733535e+02
9.649923102176418297e+02
9.669071620698271090e+02
9.668219806969051433e+02
9.657367663583531794e+02
9.656515193137488495e+02
9.585662398227694894e+02
9.624809281451911147e+02
9.623955845408879668e+02
9.653102092698314891e+02
9.652248025920895316e+02
9.641393647678256684e+02
9.630538960572982887e+02
9.649683967208599142e+02
9.678828670189562899e+02
9.677973072121259293e+02
9.667117175609986361e+02
9.666260983262953914e+02
9.655404497688272158e+02
9.674547721494946018e+02
9.693690657292862625e+02
9.752833307692789049e+02
9.751975675306359790e+02
9.731117762746073367e+02
9.720259572625279816e+02
9.759401107558174999e+02
9.768542370159791517e+02
9.777683363045994156e+02
9.766824088833465112e+02
9.775964550139705125e+02
9.785104749583016428e+02
9.794244689782501609e+02
9.823384373358051107e+02
9.862523802930338661e+02
9.831662981120811082e+02
9.840801910551680294e+02
9.809940593845917647e+02
9.809079033627241415e+02
9.828217232520115658e+02
9.847355193149734305e+02
9.806492918142018880e+02
9.785630410123609408e+02
9.794767671721855322e+02
9.803904705564805226e+02
9.773041514281205764e+02
9.782178100500486835e+02
9.751314466852755913e+02
9.800450615968791226e+02
9.809586550480032656e+02
9.818722273018573787e+02
9.777857786217151670e+02
9.746993092709145685e+02
9.706128195128561629e+02
9.675263096110026027e+02
9.654397798288781587e+02
9.633532304300674696e+02
9.612666616782152005e+02
9.641800738370246791e+02
9.630934671702573269e+02
9.610068419417323184e+02
9.579201984153249896e+02
9.598335368549666100e+02
9.617468575246433602e+02
9.626601606883953082e+02
9.605734466103162958e+02
9.574867155545522337e+02
9.563999677853011008e+02
9.543132035668116941e+02
9.552264231633827194e+02
9.561396268393623359e+02
9.560528148591473609e+02
9.529659874871819056e+02
9.538791449879574884e+02
9.537922876260112162e+02
9.557054156659256705e+02
9.546185293723281120e+02
9.565316290098890022e+02
9.544447148433221173e+02
9.523577871373829566e+02
9.552708461568684015e+02
9.561838921666158058e+02
9.580969254315020862e+02
9.570099462164429269e+02
9.539229547863922107e+02
9.508359514063409961e+02
9.487489363413163801e+02
9.416619098563816124e+02
9.385748722166342759e+02
9.304878236872062871e+02
9.244007645332624179e+02
9.143136950199999546e+02
9.162266154126479023e+02
9.321395259764657339e+02
9.560524269767428223e+02
9.829653186787980985e+02
1.015878201347978347e+03
1.063791075249658206e+03
1.121703940649238803e+03
1.167616797812147297e+03
1.190529647003835635e+03
1.182442488489780544e+03
1.133355322535482173e+03
1.055268149406462726e+03
9.861809693682668012e+02
9.420937826864600311e+02
9.260065896266279424e+02
9.299193904543759572e+02
9.358321854353278013e+02
9.437449748351250491e+02
9.456577589194263282e+02
9.475705379539064097e+02
9.474833122042555260e+02
9.453960819361784615e+02
9.443088474153936431e+02
9.402216089076326853e+02
9.401343666786390258e+02
9.440471209941678126e+02
9.459598721199845386e+02
9.438726203218641331e+02
9.437853658655910749e+02
9.416981090169572326e+02
9.436108500417623191e+02
9.475235892058123000e+02
9.464363267749187116e+02
9.453490630148980927e+02
9.452617981915709606e+02
9.451745325707611300e+02
9.450872664182949165e+02
9.470000000000000000e+02
9.459127335817050835e+02
9.458254674292388700e+02
9.437382018084290394e+02
9.386509369851019073e+02
9.415636732250812884e+02
9.434764107941877000e+02
9.443891499582376809e+02
9.433018909830427674e+02
9.422146341344089251e+02
9.381273796781358669e+02
9.400401278800154614e+02
9.419528790058321874e+02
9.418656333213609742e+02
9.417783910923673147e+02
9.406911525846063569e+02
9.396039180638215385e+02
9.415166877957444740e+02
9.384294620460935903e+02
9.413422410805736718e+02
9.402550251648749509e+02
9.401678145646721987e+02
9.380806095456240428e+02
9.389934103733720576e+02
9.409062173135399689e+02
9.428190306317331988e+02
9.427318505935372741e+02
9.426446774645178266e+02
9.415575115102193422e+02
9.424703529961643653e+02
9.423832021878528167e+02
9.402960593507611975e+02
9.402089247503417937e+02
9.371217986520216527e+02
9.340346813212019015e+02
9.379475730232571777e+02
9.398604740235343797e+02
9.417733845873520977e+02
9.426863049800000454e+02
9.375992354667375821e+02
9.395121763127937129e+02
9.394251277833657241e+02
9.403380901436183876e+02
9.412510636586836199e+02
9.411640485936591176e+02
9.390770452136077893e+02
9.359900537835570731e+02
9.369030745684979138e+02
9.398161078333841942e+02
9.407291538431315985e+02
9.396422128626171570e+02
9.385552851566779964e+02
9.344683709901109978e+02
9.343814706276718880e+02
9.342945843340742158e+02
9.352077123739887838e+02
9.341208550120425116e+02
9.290340125128180944e+02
9.299471851408526391e+02
9.288603731606376641e+02
9.317735768366172806e+02
9.296867964331883059e+02
9.246000322146988992e+02
9.275132844454477663e+02
9.264265533896837042e+02
9.303398393116046918e+02
9.312531424753566398e+02
9.331664631450333900e+02
9.320798015846748967e+02
9.289931580582676816e+02
9.279065328297426731e+02
9.288199261629753209e+02
9.317333383217847995e+02
9.336467695699325304e+02
9.355602201711218413e+02
9.324736903889973973e+02
9.333871804871438371e+02
9.363006907290854315e+02
9.412142213782848330e+02
9.431277726981427350e+02
9.440413449519967344e+02
9.439549384031208774e+02
9.438685533147244087e+02
9.477821899499513165e+02
9.506958485718794236e+02
9.536095294435194774e+02
9.555232328278145815e+02
9.554369589876390592e+02
9.523507081857981120e+02
9.542644806850265695e+02
9.541782767479884342e+02
9.550920966372758585e+02
9.540059406154082353e+02
9.529198089448319706e+02
9.518337018879188918e+02
9.527476197069661339e+02
9.546615626641948893e+02
9.545755310217498391e+02
9.564895250416983572e+02
9.534035449860294875e+02
9.513175911166534888e+02
9.532316636954006981e+02
9.521457629840208483e+02
9.560598892441825001e+02
9.549740427374720184e+02
9.538882237253926633e+02
9.548024324693640210e+02
9.577166692307210951e+02
9.586309342707137375e+02
9.565452278505053982e+02
9.554595502311727842e+02
9.533739016737046086e+02
9.492882824390013639e+02
9.532026927878740707e+02
9.541171329810437101e+02
9.540316032791401994e+02
9.509461039427017113e+02
9.488606352321743316e+02
9.467751974079104684e+02
9.486897907301685109e+02
9.506044154591120332e+02
9.495190718548088853e+02
9.464337601772306243e+02
9.473484806862511505e+02
9.452632336416468206e+02
9.481780193030948567e+02
9.480928379301728910e+02
9.490076897823581703e+02
9.499225751190266465e+02
9.458374941994524079e+02
9.457524472828067701e+02
9.436674346281572525e+02
9.455824564944672375e+02
9.474975131405947195e+02
9.464126048252921919e+02
9.493277318072047137e+02
9.452428943448704786e+02
9.461580926967191090e+02
9.460733271210709745e+02
9.459885978761368506e+02
9.459039052200166680e+02
9.448192494106989443e+02
9.437346307060598747e+02
9.456500493638628768e+02
9.475655056417572268e+02
9.484809997972779456e+02
9.463965320878443208e+02
9.443121027707596795e+02
9.402277121032104787e+02
9.421433603422651686e+02
9.430590477448739648e+02
9.439747745678675983e+02
9.468905410679567467e+02
9.458063475017313522e+02
9.407221941256595983e+02
9.446380811960871142e+02
9.475540089692367474e+02
9.474699777012068580e+02
9.443859876479713193e+02
9.443020390653783807e+02
9.432181322091500988e+02
9.431342673348810877e+02
9.440504446980385183e+02
9.439666645539606407e+02
9.438829271578562157e+02
9.417992327648038327e+02
9.417155816297513411e+02
9.416319740075143727e+02
9.445484101527764551e+02
9.444648903200874202e+02
9.443814147638631766e+02
9.402979837383848007e+02
9.392145974977976266e+02
9.411312562961106778e+02
9.430479603871956442e+02
9.449647100247863136e+02
9.468815054624777758e+02
9.477983469537255132e+02
9.477152347518447186e+02
9.536321691100096132e+02
9.545491502812526505e+02
9.574661785184633800e+02
9.563832540743883328e+02
9.553003772016297717e+02
9.562175481526448948e+02
9.581347671797453813e+02
9.610520345350964817e+02
9.609693504707162219e+02
9.638867152384744941e+02
9.608041290900924878e+02
9.607215922771422356e+02
9.636391050510447940e+02
9.615566676630708116e+02
9.624742803643388243e+02
9.603919434058147999e+02
9.583096570383114567e+02
9.562274215124872399e+02
9.591452370788458666e+02
9.610631039877354169e+02
9.609810224893475379e+02
9.568989928337165338e+02
9.558170152707192528e+02
9.567350900500732678e+02
9.606532174213372173e+02
9.655713976339092142e+02
9.674896309370266181e+02
9.644079175797648986e+02
9.603262578110371805e+02
9.522446518795932207e+02
9.521631000340187256e+02
9.490816025227350110e+02
9.490001595939974095e+02
9.439187714958953848e+02
9.398374384763510534e+02
9.377561607831189576e+02
9.376749386637851558e+02
9.365937723657660854e+02
9.355126621363085633e+02
9.354316082224881939e+02
9.373506108712095966e+02
9.342696703292043594e+02
9.361887868430317212e+02
9.371079606590766389e+02
9.370271920235497873e+02
9.359464811824863091e+02
9.338658283817454731e+02
9.307852338670097652e+02
9.337046978837840925e+02
9.306242206773948737e+02
9.355438024929896983e+02
9.364634435755363029e+02
9.323831441698218896e+02
9.283029045204524436e+02
9.322227248718517103e+02
9.351426054682609674e+02
9.340625465537376613e+02
9.339825483721552928e+02
9.329026111672019397e+02
9.278227351823804838e+02
9.257429206610069059e+02
9.246631678462099444e+02
9.185834769809307545e+02
9.125038483079213165e+02
9.084242820697445495e+02
9.013447785087729471e+02
8.942653378671880091e+02
8.951859603869799002e+02
9.041066463099461998e+02
9.220273958776911059e+02
9.439482093316254350e+02
9.708690869129650309e+02
1.010790028862730537e+03
1.065711035421746374e+03
1.121632106830640396e+03
1.162553243329842644e+03
1.179474445159585230e+03
1.161395712559900858e+03
1.106317045770622826e+03
1.028238445031383662e+03
9.591599105816148949e+02
9.170814426605461449e+02
9.020030415072042160e+02
9.039247073604127536e+02
9.118464404587909939e+02
9.217682410407536509e+02
9.236901093445095512e+02
9.226120456080615213e+02
9.225340500692051364e+02
9.214561229655284933e+02
9.233782645344108460e+02
9.253004750130227194e+02
9.242227546383242043e+02
9.241451036470652980e+02
9.210675222757841993e+02
9.189900107608074222e+02
9.189125693382483178e+02
9.228351982440069605e+02
9.227578977137690117e+02
9.196806679830054918e+02
9.196035092869713026e+02
9.175264218607054545e+02
9.184494059390294751e+02
9.213724617565472954e+02
9.212955895476442265e+02
9.202187895464862777e+02
9.171420619870195878e+02
9.170654071029696297e+02
9.169888251278405278e+02
9.199123162949142625e+02
9.218358808372498743e+02
9.217595189876831228e+02
9.176832309788254634e+02
9.166070170430633652e+02
9.185308774125576292e+02
9.204548123192429330e+02
9.203788219948266942e+02
9.203029066707885022e+02
9.182270665783796630e+02
9.171513019486222902e+02
9.170756130123085086e+02
9.190000000000000000e+02
9.209244631420270935e+02
9.198490026684881968e+02
9.167736188092490011e+02
9.136983117939417980e+02
9.156230818519647983e+02
9.175479292124814492e+02
9.164728541044197527e+02
9.173978567564713558e+02
9.153229373970914367e+02
9.132480962544973409e+02
9.131733335566678988e+02
9.160986495313434261e+02
9.190240444060245864e+02
9.199495184079711407e+02
9.178750717642025165e+02
9.158007047014959880e+02
9.157264174463866766e+02
9.176522102251660726e+02
9.195780832638826041e+02
9.155040367883397039e+02
9.134300710240959233e+02
9.133561861964634545e+02
9.142823825305086984e+02
9.142086602510501052e+02
9.161350195826588561e+02
9.130614607496568169e+02
9.139879839761172207e+02
9.119145894858629617e+02
9.148412775024664825e+02
9.167680482492486362e+02
9.156949019492785737e+02
9.166218388253724925e+02
9.165488591000934093e+02
9.144759629957502511e+02
9.164031507343970588e+02
9.173304225378327601e+02
9.172577786276000325e+02
9.151852192249847349e+02
9.141127445510154530e+02
9.110403548264627034e+02
9.109680502718379103e+02
9.138958311073935192e+02
9.138236975531214057e+02
9.117516498287531022e+02
9.096796881537583204e+02
9.066078127473449513e+02
9.075360238284578145e+02
9.084643216157784309e+02
9.093927063277242269e+02
9.093211781824477384e+02
9.052497373978360429e+02
9.061783841915103039e+02
9.061071187808247487e+02
9.080359413828660990e+02
9.079648522144530034e+02
9.058938514921355818e+02
9.068229394321940617e+02
9.047521162506392329e+02
9.086813821632105146e+02
9.086107373853762965e+02
9.115401821323329159e+02
9.144697166190037478e+02
9.143993410600389780e+02
9.173290556698149203e+02
9.212588606624328804e+02
9.271887562517192691e+02
9.281187426512238972e+02
9.290488200742206573e+02
9.279789887337058190e+02
9.279092488423975738e+02
9.318396006127359215e+02
9.347700442568813060e+02
9.367005799867143878e+02
9.356312080138357032e+02
9.355619285495639588e+02
9.314927418049365997e+02
9.344236479907084458e+02
9.363546473173512368e+02
9.372857399950528361e+02
9.332169262337171176e+02
9.351482062429626012e+02
9.340795802321223391e+02
9.350110484102430064e+02
9.369426109860844463e+02
9.378742681681189879e+02
9.378060201645306506e+02
9.347378671832146892e+02
9.346698094317769119e+02
9.356018471175331115e+02
9.385339804475081564e+02
9.384662096284356494e+02
9.383985348667574726e+02
9.373309563686225374e+02
9.342634743398866704e+02
9.351960889861118176e+02
9.371288005125654763e+02
9.370616091242201264e+02
9.339945150257522073e+02
9.329275184215421177e+02
9.308606195156730791e+02
9.327938185119306809e+02
9.327271156138024253e+02
9.346605110244770458e+02
9.335940049468434836e+02
9.315275975834907740e+02
9.304612891367074781e+02
9.293950798084804319e+02
9.323289698004947468e+02
9.312629593141330133e+02
9.301970485504746193e+02
9.291312377102951814e+02
9.260655269940659764e+02
9.259999166019531458e+02
9.279344067338173545e+02
9.288689975892131088e+02
9.278036893673879604e+02
9.277384822672819382e+02
9.256733764875273209e+02
9.266083722264477274e+02
9.285434696820570935e+02
9.264786690520600132e+02
9.274139705338504882e+02
9.243493743245113592e+02
9.242848806208138512e+02
9.262204896192170054e+02
9.281562015158669965e+02
9.280920165065964511e+02
9.280279347869242201e+02
9.239639565520541282e+02
9.229000819968750875e+02
9.238363113159600744e+02
9.257726447035655610e+02
9.247090823536311746e+02
9.246456244597789009e+02
9.235822712153122893e+02
9.225190228132164521e+02
9.234558794461570415e+02
9.243928413064796814e+02
9.243299085862092852e+02
9.252670814770501693e+02
9.242043601703842342e+02
9.231417448572717603e+02
9.240792357284497029e+02
9.260168329743316917e+02
9.279545367850074626e+02
9.238923473502418346e+02
9.258302648594748234e+02
9.217682895018202771e+02
9.227064214660659900e+02
9.266446609406726793e+02
9.245830081137735306e+02
9.225214631731739701e+02
9.224600263063504144e+02
9.213986977004501568e+02
9.223374775422909124e+02
9.222763660183597949e+02
9.242153633148132030e+02
9.241544696174759110e+02
9.220936851118406139e+02
9.220330099830674726e+02
9.229724444159834320e+02
9.249119885950818798e+02
9.248516427045216233e+02
9.247914069281266620e+02
9.217312814493856195e+02
9.216712664514511744e+02
9.236113621171394925e+02
9.245515686289294308e+02
9.264918861689624237e+02
9.264323149190414597e+02
9.283728550606310819e+02
9.243135067748562506e+02
9.272542702425020025e+02
9.321951456440133370e+02
9.361361331594938520e+02
9.360772329687058573e+02
9.350184452510694655e+02
9.339597701856624781e+02
9.359012079512192486e+02
9.398427587261303415e+02
9.407844226884423051e+02
9.417262000158568753e+02
9.426680908857304075e+02
9.426100954750734218e+02
9.435522139605499206e+02
9.464944465184770479e+02
9.454367933248244071e+02
9.453792545552137199e+02
9.413218303849181439e+02
9.392645209888613635e+02
9.382073265416180448e+02
9.401502472174122431e+02
9.430932831901174040e+02
9.380364346332560217e+02
9.379797017199985021e+02
9.359230846231631631e+02
9.388665835152155523e+02
9.438101985682678787e+02
9.457539299540784441e+02
9.416977778440510747e+02
9.346417424092350075e+02
9.305858238203238670e+02
9.285300222476552108e+02
9.254743378612105289e+02
9.244187708306139939e+02
9.213633213251324605e+02
9.193079895136746700e+02
9.202527755647910226e+02
9.211976796466726682e+02
9.191427019271515064e+02
9.190878425736989357e+02
9.180331017534263083e+02
9.169784796330835661e+02
9.159239763790590132e+02
9.168695921573793157e+02
9.178153271337080241e+02
9.207611814733459141e+02
9.197071553412298499e+02
9.176532489019331251e+02
9.155994623196638713e+02
9.155457957582655126e+02
9.154922493812155153e+02
9.174388233516255013e+02
9.163855178322404527e+02
9.153323329854382564e+02
9.132792689732291365e+02
9.162263259572551988e+02
9.161735040987902039e+02
9.161208035587385439e+02
9.160682244976353559e+02
9.150157670756454991e+02
9.129634314525633272e+02
9.109112177878122338e+02
9.098591262404443114e+02
9.028071569691391005e+02
8.947553101322042721e+02
8.877035858875742633e+02
8.846519843928099363e+02
8.796005058050984644e+02
8.765491502812526505e+02
8.824979179777102445e+02
9.004468090505337159e+02
9.273958236554096857e+02
9.563449619476485850e+02
9.962942240821839732e+02
1.043243610213572310e+03
1.099193120495991934e+03
1.145142755083243628e+03
1.172092514128748917e+03
1.167042397785550520e+03
1.137992406206311443e+03
1.071942539543314751e+03
9.868927979484631123e+02
9.238431815732778887e+02
8.937936905688992510e+02
8.887443250860852686e+02
8.976950852752117953e+02
9.066459712862719016e+02
9.105969832688753058e+02
9.105481213722479197e+02
9.084993857452316206e+02
9.064507765362835698e+02
9.064022938934758713e+02
9.073539379644950031e+02
9.083057088966415904e+02
9.092576068368296092e+02
9.082096319315865003e+02
9.051617843270519188e+02
9.051140641689780750e+02
9.070664716027288250e+02
9.080190067732793295e+02
9.079716698252158267e+02
9.049244609027347224e+02
9.028773801496425904e+02
9.048304277093557175e+02
9.047836037248991943e+02
9.037369083389072557e+02
9.046903416936218036e+02
9.026439039308932024e+02
8.995975951921786873e+02
9.015514156185429329e+02
9.025053653506568025e+02
9.054594445287974622e+02
9.024136532928475845e+02
9.023679917822953485e+02
9.013224601362336443e+02
9.012770584933596183e+02
9.022317869919746727e+02
9.031866457699835564e+02
9.031416349648943651e+02
9.020967547138177451e+02
9.000520051534667800e+02
9.030073864201563083e+02
9.039628986498028098e+02
9.059185419779237236e+02
9.058743165396371069e+02
9.048302224696614076e+02
9.027862599023147823e+02
9.037424289715147552e+02
9.066987298107781044e+02
9.066551625532198386e+02
9.066117273315535385e+02
9.055684242780904469e+02
9.035252535247390142e+02
9.064822152030050120e+02
9.024393094439905099e+02
9.053965363783939893e+02
9.063538961365095474e+02
9.043113888482267839e+02
9.022690146430302320e+02
9.022267736499991315e+02
9.031846659978068601e+02
9.051426918147205924e+02
9.051008512286009591e+02
9.030591443669017053e+02
9.010175713566691229e+02
9.019761323245419362e+02
9.029348273967503928e+02
9.048936566991166046e+02
9.038526203570536381e+02
9.028117184955652874e+02
9.017709512392458464e+02
9.037303187122791996e+02
9.036898210384392769e+02
9.056494583410889163e+02
9.056092307431799782e+02
9.065691383672525490e+02
9.015291813354351689e+02
9.064893597694436949e+02
9.064496737905816417e+02
9.074101235197392725e+02
9.043707090773937125e+02
9.033314305836081530e+02
8.992922881580316243e+02
9.012532819198987681e+02
9.042144119880293829e+02
9.041756784808279690e+02
9.051370815162836152e+02
9.020986212119692027e+02
9.010602976850416326e+02
9.010221110522410299e+02
9.009840614298902892e+02
9.009461489338954152e+02
9.039083736797442725e+02
9.018707357825069266e+02
8.998332353568349617e+02
9.027958725169610261e+02
9.047586473766990594e+02
9.037215600494430419e+02
9.036846106481674497e+02
9.006477992854267995e+02
8.976111260733546260e+02
9.035745911236639358e+02
9.045381945476465262e+02
9.065019364561728707e+02
9.034658169596910966e+02
9.014298361682277800e+02
9.023939941913863549e+02
9.043582911383479086e+02
9.063227271178699311e+02
9.092873022382867703e+02
9.092520166075087218e+02
9.122168703330219159e+02
9.121818635218879763e+02
9.151469962807437923e+02
9.161122687158009512e+02
9.190776809328456238e+02
9.210432330372382239e+02
9.210089251339130669e+02
9.189747573273780290e+02
9.219407297217139785e+02
9.239068424205750034e+02
9.218730955271877292e+02
9.218394891443509778e+02
9.218060233744356537e+02
9.197726983193842898e+02
9.197395140807109328e+02
9.217064707595002346e+02
9.226735684564081339e+02
9.216408072716606057e+02
9.206081873050540025e+02
9.195757086559542586e+02
9.195433714232972306e+02
9.215111757055874477e+02
9.214791216008987931e+02
9.204472092068735947e+02
9.194154386207225116e+02
9.173838099392244203e+02
9.183523232587255052e+02
9.203209786751399406e+02
9.212897762839485267e+02
9.202587161801992579e+02
9.202277984585066406e+02
9.181970232130513523e+02
9.201663905375801278e+02
9.211359005254054182e+02
9.221055532694051635e+02
9.210753488620222242e+02
9.190452873952644950e+02
9.150153689607045635e+02
9.159855936494790285e+02
9.199559615522887270e+02
9.229264727593981661e+02
9.228971273606351815e+02
9.218679254453910517e+02
9.198388671026199290e+02
9.198099524208384992e+02
9.227811814881259806e+02
9.237525543921234430e+02
9.237240712200341477e+02
9.236957320586227524e+02
9.206675369942151974e+02
9.236394861126985916e+02
9.276115794995207580e+02
9.295838172396900063e+02
9.295561994177751330e+02
9.265287261179048528e+02
9.265013974237673438e+02
9.274742134186108160e+02
9.334471741852423747e+02
9.324202798060281339e+02
9.273935303628931024e+02
9.253669259373207296e+02
9.303404666103526779e+02
9.353141524625887087e+02
9.342879835741862280e+02
9.322619600248601728e+02
9.302360818938827833e+02
9.282103492600834898e+02
9.281847622018482298e+02
9.271593207971196762e+02
9.261340251233966683e+02
9.221088752577342120e+02
9.190838712767433663e+02
9.130590132565903332e+02
9.120343012729971406e+02
9.120097354012406186e+02
9.139853157161528543e+02
9.099610422921202826e+02
9.079369152030840269e+02
9.069129345225394445e+02
9.038891003235357857e+02
9.028654126786760798e+02
9.038418716601171354e+02
9.058184773395688580e+02
9.047952297882944777e+02
9.007721290771100939e+02
8.987491752763844488e+02
9.007263684560386992e+02
9.017037086855466441e+02
9.026811960339335883e+02
9.026588305697770238e+02
9.016366123612061756e+02
8.996145414759014329e+02
9.035926179810945769e+02
9.055708419435684391e+02
9.045492134296565609e+02
9.045277325052430797e+02
9.055063992357626148e+02
9.024852136862001544e+02
9.054641759210904866e+02
9.054432860045181997e+02
9.074225440001176821e+02
9.044019499710726677e+02
9.053815039801161220e+02
9.003612060895301283e+02
9.023410563611455473e+02
9.003210548563420161e+02
8.953012016360473808e+02
8.892814967607382641e+02
8.802619402904389290e+02
8.712425322847218467e+02
8.712232728027071289e+02
8.652041619030626407e+02
8.611851996440033190e+02
8.671663860832916271e+02
8.861477212782367587e+02
9.141292052856952068e+02
9.471108381620697401e+02
9.800926199633097440e+02
1.027074550744910994e+03
1.077056630561915654e+03
1.122038859468911596e+03
1.144021237520032855e+03
1.150003764768958490e+03
1.121986441268913950e+03
1.054969267072669254e+03
9.699522422325404705e+02
9.079353668003877829e+02
8.789186408276168549e+02
8.809020643651778073e+02
8.918856374635655584e+02
8.998693601728192561e+02
9.018532325425222780e+02
8.978372546218022308e+02
8.948214264593307234e+02
8.988057481033229124e+02
8.967902196015379559e+02
8.997748410012782188e+02
8.977596123493896130e+02
8.957445336922612569e+02
8.937296050758254751e+02
8.967148265455573437e+02
8.987001981464748042e+02
8.976857199231384357e+02
8.976713919196515690e+02
8.956572141796596043e+02
8.946431867463505796e+02
8.936293096624544887e+02
8.946155829702431674e+02
8.966020067115305210e+02
8.965885809276724103e+02
8.955753056595658563e+02
8.945621809476497219e+02
8.965492068319041437e+02
8.975363833518505317e+02
8.965237105465515697e+02
8.975111884546105330e+02
8.924988171141720841e+02
8.904865965629214770e+02
8.934745268380845573e+02
8.924626079764278757e+02
8.964508400142582332e+02
8.964392229874229088e+02
8.964277569313094318e+02
8.944164418808454684e+02
8.944052778704984803e+02
8.963942649342760660e+02
8.993834031057256198e+02
8.983726924179338766e+02
8.953621329035277085e+02
8.943517245946731009e+02
8.963414675230757211e+02
8.943313617199801229e+02
8.963214072161706554e+02
8.953116040419702131e+02
8.923019522272410313e+02
8.912924518013842317e+02
8.932831027933398218e+02
8.972739052315863546e+02
8.972648591441412691e+02
8.982559645585605494e+02
8.942472215019387249e+02
8.942386300009084152e+02
8.952301900816410125e+02
8.962219017698459993e+02
8.982137650907709485e+02
8.992057800692015235e+02
8.951979467294614778e+02
8.951902650954127694e+02
8.971827351904546504e+02
8.981753570375248046e+02
8.991681306590982103e+02
8.971610560771875953e+02
8.961541333133435501e+02
8.941473623886539599e+02
8.941407433237442319e+02
8.971342761387770679e+02
8.981279608534528052e+02
8.951217974870087346e+02
8.961157860582197827e+02
8.941099265853974885e+02
8.951042190863910264e+02
8.970986635785864109e+02
8.980932600789066100e+02
8.970880086038117724e+02
8.950829091692985457e+02
8.930779617909009858e+02
8.940731664836894197e+02
8.960685232622713556e+02
8.980640321407906868e+02
8.980596931329282597e+02
8.970555062519015337e+02
8.930514715104642391e+02
8.950475889209070601e+02
8.940438584950570657e+02
8.960402802442777102e+02
8.940368541794689463e+02
8.930335803110672259e+02
8.890304586490451584e+02
8.900274892029121929e+02
8.930246719817133680e+02
8.940220069940307894e+02
8.930194942479822657e+02
8.930171337512221044e+02
8.910149255109408841e+02
8.940128695338651141e+02
8.960109658262576886e+02
8.980092143939177731e+02
8.970076152421804636e+02
8.950061683759170137e+02
8.930048737995348347e+02
8.960037315169773819e+02
9.000027415317243822e+02
9.000019038467914925e+02
9.000012184647303002e+02
8.970006853876286641e+02
9.000003046171104870e+02
9.030000761543356020e+02
9.050000000000000000e+02
9.060000761543356020e+02
9.070003046171104870e+02
9.060006853876286641e+02
9.030012184647303002e+02
9.070019038467914925e+02
9.090027415317243822e+02
9.120037315169773819e+02
9.130048737995348347e+02
9.130061683759170137e+02
9.100076152421804636e+02
9.110092143939177731e+02
9.120109658262576886e+02
9.130128695338651141e+02
9.130149255109408841e+02
9.080171337512221044e+02
9.090194942479822657e+02
9.050220069940307894e+02
9.090246719817133680e+02
9.110274892029121929e+02
9.110304586490451584e+02
9.130335803110672259e+02
9.120368541794689463e+02
9.120402802442777102e+02
9.140438584950570657e+02
9.130475889209070601e+02
9.130514715104642391e+02
9.110555062519015337e+02
9.100596931329282597e+02
9.090640321407906868e+02
9.110685232622713556e+02
9.130731664836894197e+02
9.110779617909009858e+02
9.090829091692985457e+02
9.090880086038117724e+02
9.080932600789066100e+02
9.110986635785864109e+02
9.111042190863910264e+02
9.121099265853974885e+02
9.081157860582197827e+02
9.061217974870087346e+02
9.071279608534528052e+02
9.081342761387770679e+02
9.051407433237442319e+02
9.031473623886539599e+02
9.011541333133435501e+02
9.001610560771875953e+02
9.051681306590982103e+02
9.061753570375248046e+02
9.061827351904546504e+02
9.051902650954127694e+02
9.021979467294614778e+02
9.012057800692015235e+02
9.022137650907709485e+02
9.022219017698459993e+02
9.052301900816410125e+02
9.032386300009084152e+02
9.012472215019387249e+02
9.042559645585605494e+02
9.022648591441412691e+02
9.042739052315863546e+02
9.062831027933398218e+02
9.052924518013842317e+02
9.033019522272410313e+02
9.003116040419702131e+02
9.043214072161706554e+02
9.043313617199801229e+02
9.043414675230757211e+02
9.053517245946731009e+02
9.043621329035277085e+02
9.033726924179338766e+02
9.023834031057256198e+02
9.053942649342760660e+02
9.034052778704984803e+02
9.044164418808454684e+02
9.024277569313094318e+02
9.004392229874229088e+02
9.034508400142582332e+02
9.034626079764277620e+02
9.044745268380845573e+02
9.034865965629214770e+02
9.024988171141720841e+02
8.965111884546105330e+02
8.975237105465515697e+02
9.025363833518505317e+02
9.025492068319041437e+02
9.005621809476497219e+02
9.005753056595658563e+02
8.965885809276724103e+02
8.996020067115305210e+02
9.006155829702431674e+02
9.046293096624544887e+02
9.066431867463505796e+02
9.056572141796596043e+02
9.026713919196515690e+02
9.026857199231384357e+02
9.047001981464748042e+02
9.047148265455573437e+02
9.077296050758254751e+02
9.027445336922612569e+02
9.017596123493896130e+02
9.017748410012782188e+02
9.027902196015379559e+02
9.028057481033229124e+02
9.018214264593307234e+02
8.998372546218022308e+02
8.978532325425222780e+02
8.978693601728192561e+02
9.018856374635655584e+02
9.009020643651778073e+02
8.999186408276168549e+02
9.009353668003877829e+02
8.999522422325404705e+02
9.019692670726693677e+02
9.039864412689139499e+02
9.040037647689584901e+02
9.030212375200327415e+02
9.020388594689117099e+02
9.010566305619157674e+02
9.030745507449111074e+02
9.050926199633097440e+02
9.071108381620697401e+02
9.061292052856952068e+02
9.071477212782367587e+02
9.051663860832916271e+02
9.061851996440033190e+02
9.052041619030626407e+02
9.032232728027071289e+02
9.052425322847218467e+02
9.032619402904389290e+02
9.012814967607382641e+02
9.033012016360473808e+02
9.033210548563420161e+02
9.043410563611455473e+02
9.033612060895301283e+02
9.003815039801161220e+02
9.004019499710726677e+02
9.014225440001176821e+02
9.054432860045181997e+02
9.044641759210904866e+02
9.034852136862001544e+02
9.025063992357626148e+02
9.005277325052430797e+02
9.015492134296565609e+02
9.025708419435684391e+02
9.035926179810945769e+02
9.046145414759014329e+02
9.036366123612061756e+02
9.036588305697770238e+02
9.056811960339334746e+02
9.077037086855466441e+02
9.067263684560386992e+02
9.067491752763844488e+02
9.047721290771100939e+02
9.037952297882944777e+02
9.038184773395688580e+02
9.028418716601171354e+02
9.068654126786760798e+02
9.048891003235356720e+02
9.059129345225394445e+02
9.039369152030840269e+02
9.049610422921202826e+02
9.039853157161528543e+02
9.070097354012406186e+02
9.090343012729971406e+02
9.100590132565903332e+02
9.100838712767433663e+02
9.141088752577342120e+02
9.151340251233966683e+02
9.161593207971196762e+02
9.151847622018482298e+02
9.172103492600834898e+02
9.152360818938827833e+02
9.192619600248601728e+02
9.212879835741861143e+02
9.233141524625887087e+02
9.253404666103526779e+02
9.253669259373207296e+02
9.243935303628931024e+02
9.234202798060281339e+02
9.254471741852423747e+02
9.254742134186108160e+02
9.245013974237673438e+02
9.205287261179048528e+02
9.185561994177751330e+02
9.205838172396900063e+02
9.226115794995207580e+02
9.256394861126985916e+02
9.216675369942151974e+02
9.186957320586227524e+02
9.127240712200341477e+02
9.167525543921234430e+02
9.177811814881259806e+02
9.228099524208384992e+02
9.238388671026199290e+02
9.228679254453910517e+02
9.198971273606351815e+02
9.169264727593980524e+02
9.149559615522887270e+02
9.139855936494790285e+02
9.130153689607045635e+02
9.070452873952644950e+02
9.030753488620222242e+02
9.041055532694051635e+02
9.041359005254054182e+02
9.041663905375801278e+02
9.031970232130513523e+02
9.032277984585066406e+02
9.032587161801992579e+02
9.012897762839485267e+02
9.053209786751399406e+02
9.023523232587255052e+02
9.023838099392244203e+02
8.974154386207225116e+02
8.934472092068735947e+02
8.964791216008987931e+02
8.975111757055874477e+02
9.005433714232972306e+02
9.015757086559543723e+02
8.976081873050540025e+02
8.946408072716606057e+02
8.966735684564081339e+02
8.987064707595002346e+02
8.987395140807109328e+02
8.987726983193842898e+02
8.958060233744356537e+02
8.918394891443509778e+02
8.898730955271877292e+02
8.869068424205750034e+02
8.799407297217139785e+02
8.809747573273780290e+02
8.740089251339130669e+02
8.640432330372383376e+02
8.630776809328456238e+02
8.731122687158009512e+02
8.941469962807437923e+02
9.171818635218879763e+02
9.402168703330219159e+02
9.742520166075087218e+02
1.022287302238286770e+03
1.075322727117870045e+03
1.121358291138347795e+03
1.147393994191386355e+03
1.155429836168227666e+03
1.136465816959691210e+03
1.090501936456172871e+03
1.023538194547646526e+03
9.645745911236639358e+02
9.216111260733545123e+02
8.936477992854267995e+02
8.786846106481675633e+02
8.687215600494430419e+02
8.717586473766990594e+02
8.787958725169610261e+02
8.858332353568349617e+02
8.888707357825069266e+02
8.889083736797442725e+02
8.919461489338954152e+02
8.949840614298902892e+02
8.970221110522410299e+02
8.970602976850416326e+02
8.960986212119692027e+02
8.951370815162836152e+02
8.941756784808279690e+02
8.952144119880293829e+02
8.932532819198987681e+02
8.932922881580316243e+02
8.913314305836081530e+02
8.893707090773937125e+02
8.894101235197392725e+02
8.934496737905816417e+02
8.934893597694436949e+02
8.935291813354351689e+02
8.905691383672525490e+02
8.906092307431799782e+02
8.916494583410889163e+02
8.946898210384392769e+02
8.937303187122791996e+02
8.937709512392458464e+02
8.948117184955652874e+02
8.908526203570536381e+02
8.908936566991166046e+02
8.939348273967503928e+02
8.929761323245419362e+02
8.930175713566691229e+02
8.910591443669017053e+02
8.911008512286009591e+02
8.931426918147205924e+02
8.941846659978068601e+02
8.952267736499991315e+02
8.942690146430302320e+02
8.943113888482267839e+02
8.923538961365095474e+02
8.963965363783939893e+02
8.944393094439905099e+02
8.954822152030050120e+02
8.945252535247390142e+02
8.925684242780904469e+02
8.926117273315535385e+02
8.946551625532198386e+02
8.946987298107781044e+02
8.977424289715147552e+02
8.957862599023147823e+02
8.948302224696614076e+02
8.898743165396371069e+02
8.919185419779237236e+02
8.919628986498028098e+02
8.950073864201563083e+02
8.950520051534667800e+02
8.930967547138177451e+02
8.931416349648943651e+02
8.941866457699835564e+02
8.952317869919746727e+02
8.982770584933596183e+02
8.983224601362336443e+02
8.963679917822953485e+02
8.964136532928475845e+02
8.974594445287974622e+02
9.005053653506568025e+02
9.005514156185429329e+02
8.985975951921786873e+02
8.986439039308930887e+02
8.966903416936218036e+02
8.957369083389071420e+02
9.007836037248991943e+02
9.008304277093557175e+02
9.008773801496425904e+02
9.009244609027347224e+02
8.959716698252158267e+02
8.990190067732793295e+02
9.000664716027288250e+02
8.991140641689780750e+02
8.961617843270519188e+02
8.932096319315865003e+02
8.892576068368297229e+02
8.903057088966415904e+02
8.923539379644950031e+02
8.914022938934758713e+02
8.904507765362835698e+02
8.894993857452316206e+02
8.855481213722479197e+02
8.835969832688753058e+02
8.876459712862719016e+02
8.846950852752117953e+02
8.827443250860852686e+02
8.837936905688992510e+02
8.798431815732778887e+02
8.828927979484631123e+02
8.859425395433147514e+02
8.849924062063114434e+02
8.860423977855504063e+02
8.830925141287488032e+02
8.831427550832436282e+02
8.851931204959920478e+02
8.872436102135723104e+02
8.912942240821840869e+02
8.913449619476485850e+02
8.893958236554096857e+02
8.904468090505337159e+02
8.954979179777102445e+02
8.975491502812526505e+02
8.986005058050984644e+02
9.016519843928099363e+02
9.017035858875742633e+02
9.037553101322042721e+02
9.058071569691391005e+02
9.078591262404443114e+02
9.129112177878123475e+02
9.139634314525633272e+02
9.130157670756454991e+02
9.140682244976353559e+02
9.161208035587385439e+02
9.181735040987902039e+02
9.192263259572551988e+02
9.232792689732291365e+02
9.203323329854382564e+02
9.213855178322404527e+02
9.234388233516255013e+02
9.244922493812155153e+02
9.235457957582655126e+02
9.235994623196638713e+02
9.226532489019331251e+02
9.187071553412299636e+02
9.227611814733459141e+02
9.218153271337080241e+02
9.218695921573793157e+02
9.209239763790591269e+02
9.199784796330834524e+02
9.200331017534263083e+02
9.200878425736989357e+02
9.231427019271515064e+02
9.231976796466726682e+02
9.222527755647910226e+02
9.203079895136746700e+02
9.193633213251324605e+02
9.204187708306139939e+02
9.204743378612105289e+02
9.225300222476552108e+02
9.215858238203238670e+02
9.196417424092350075e+02
9.186977778440510747e+02
9.197539299540784441e+02
9.228101985682678787e+02
9.218665835152155523e+02
9.219230846231631631e+02
9.189797017199985021e+02
9.190364346332560217e+02
9.210932831901174040e+02
9.211502472174121294e+02
9.222073265416180448e+02
9.222645209888613635e+02
9.213218303849181439e+02
9.163792545552138336e+02
9.174367933248244071e+02
9.174944465184770479e+02
9.195522139605499206e+02
9.176100954750734218e+02
9.156680908857304075e+02
9.157262000158568753e+02
9.157844226884423051e+02
9.178427587261303415e+02
9.199012079512191349e+02
9.199597701856624781e+02
9.180184452510694655e+02
9.160772329687058573e+02
9.191361331594937383e+02
9.201951456440132233e+02
9.212542702425020025e+02
9.203135067748561369e+02
9.183728550606310819e+02
9.174323149190414597e+02
9.174918861689624237e+02
9.195515686289294308e+02
9.206113621171394925e+02
9.216712664514511744e+02
9.157312814493856195e+02
9.167914069281266620e+02
9.188516427045216233e+02
9.209119885950818798e+02
9.189724444159834320e+02
9.180330099830674726e+02
9.160936851118406139e+02
9.121544696174757973e+02
9.142153633148132030e+02
9.192763660183597949e+02
9.193374775422909124e+02
9.183986977004501568e+02
9.174600263063504144e+02
9.155214631731739701e+02
9.165830081137735306e+02
9.196446609406725656e+02
9.197064214660659900e+02
9.187682895018202771e+02
9.168302648594748234e+02
9.168923473502418346e+02
9.189545367850074626e+02
9.180168329743316917e+02
9.210792357284497029e+02
9.201417448572717603e+02
9.182043601703842342e+02
9.182670814770501693e+02
9.183299085862093989e+02
9.213928413064796814e+02
9.214558794461570415e+02
9.205190228132164521e+02
9.165822712153122893e+02
9.156456244597789009e+02
9.197090823536311746e+02
9.237726447035655610e+02
9.258363113159600744e+02
9.269000819968750875e+02
9.309639565520541282e+02
9.290279347869242201e+02
9.310920165065964511e+02
9.301562015158669965e+02
9.332204896192170054e+02
9.352848806208138512e+02
9.383493743245113592e+02
9.354139705338504882e+02
9.374786690520600132e+02
9.385434696820570935e+02
9.406083722264476137e+02
9.416733764875273209e+02
9.397384822672819382e+02
9.378036893673879604e+02
9.388689975892131088e+02
9.389344067338174682e+02
9.409999166019531458e+02
9.390655269940659764e+02
9.351312377102951814e+02
9.351970485504746193e+02
9.362629593141330133e+02
9.343289698004947468e+02
9.353950798084804319e+02
9.404612891367074781e+02
9.425275975834907740e+02
9.425940049468434836e+02
9.396605110244770458e+02
9.347271156138024253e+02
9.337938185119306809e+02
9.318606195156730791e+02
9.279275184215421177e+02
9.249945150257522073e+02
9.210616091242201264e+02
9.221288005125654763e+02
9.211960889861118176e+02
9.212634743398866704e+02
9.173309563686225374e+02
9.153985348667574726e+02
9.164662096284356494e+02
9.205339804475081564e+02
9.226018471175331115e+02
9.206698094317770256e+02
9.197378671832146892e+02
9.188060201645306506e+02
9.188742681681189879e+02
9.199426109860844463e+02
9.210110484102430064e+02
9.200795802321222254e+02
9.191482062429626012e+02
9.162169262337171176e+02
9.162857399950528361e+02
9.203546473173511231e+02
9.214236479907084458e+02
9.174927418049365997e+02
9.165619285495639588e+02
9.146312080138357032e+02
9.147005799867145015e+02
9.167700442568813060e+02
9.178396006127359215e+02
9.149092488423975738e+02
9.089789887337058190e+02
9.010488200742206573e+02
8.941187426512240108e+02
8.911887562517191554e+02
8.882588606624329941e+02
8.823290556698149203e+02
8.773993410600389780e+02
8.884697166190037478e+02
9.125401821323329159e+02
9.436107373853762965e+02
9.736813821632105146e+02
1.015752116250639233e+03
1.065822939432194062e+03
1.114893851492135582e+03
1.156964852214453003e+03
1.173035941382865985e+03
1.161107118780824749e+03
1.111178384191510304e+03
1.032249737397836043e+03
9.543211781824476247e+02
9.053927063277242269e+02
8.904643216157784309e+02
8.965360238284578145e+02
9.026078127473449513e+02
9.086796881537583204e+02
9.127516498287531022e+02
9.128236975531214057e+02
9.128958311073935192e+02
9.159680502718379103e+02
9.170403548264627034e+02
9.151127445510154530e+02
9.111852192249847349e+02
9.092577786276000325e+02
9.133304225378327601e+02
9.134031507343970588e+02
9.134759629957502511e+02
9.135488591000934093e+02
9.106218388253724925e+02
9.126949019492785737e+02
9.147680482492486362e+02
9.158412775024664825e+02
9.129145894858629617e+02
9.149879839761172207e+02
9.130614607496568169e+02
9.171350195826587424e+02
9.182086602510502189e+02
9.202823825305086984e+02
9.173561861964634545e+02
9.174300710240958097e+02
9.175040367883397039e+02
9.175780832638826041e+02
9.186522102251660726e+02
9.177264174463865629e+02
9.178007047014961017e+02
9.178750717642025165e+02
9.159495184079711407e+02
9.190240444060245864e+02
9.160986495313435398e+02
9.181733335566678988e+02
9.192480962544972272e+02
9.173229373970914367e+02
9.163978567564714695e+02
9.154728541044196390e+02
9.175479292124814492e+02
9.186230818519647983e+02
9.196983117939417980e+02
9.177736188092490011e+02
9.158490026684881968e+02
9.179244631420270935e+02
9.160000000000000000e+02
9.170756130123085086e+02
9.181513019486222902e+02
9.182270665783796630e+02
9.173029066707885022e+02
9.183788219948266942e+02
9.194548123192429330e+02
9.205308774125577429e+02
9.186070170430633652e+02
9.186832309788254634e+02
9.197595189876831228e+02
9.208358808372498743e+02
9.219123162949142625e+02
9.209888251278405278e+02
9.220654071029696297e+02
9.211420619870195878e+02
9.162187895464861640e+02
9.172955895476442265e+02
9.193724617565472954e+02
9.204494059390294751e+02
9.205264218607054545e+02
9.176035092869713026e+02
9.166806679830053781e+02
9.187578977137690117e+02
9.218351982440068468e+02
9.209125693382483178e+02
9.199900107608074222e+02
9.180675222757843130e+02
9.141451036470652980e+02
9.182227546383242043e+02
9.183004750130226057e+02
9.213782645344108460e+02
9.204561229655284933e+02
9.175340500692051364e+02
9.156120456080615213e+02
9.166901093445095512e+02
9.197682410407536509e+02
9.198464404587909939e+02
9.209247073604127536e+02
9.190030415072042160e+02
9.170814426605461449e+02
9.171599105816148949e+02
9.182384450313835487e+02
9.203170457706228262e+02
9.203957125599008577e+02
9.184744451595852297e+02
9.165532433298426440e+02
9.176321068306403959e+02
9.187110354217463737e+02
9.217900288627305372e+02
9.198690869129650309e+02
9.209482093316254350e+02
9.210273958776911059e+02
9.261066463099461998e+02
9.291859603869799002e+02
9.312653378671880091e+02
9.333447785087729471e+02
9.334242820697445495e+02
9.335038483079214302e+02
9.365834769809307545e+02
9.396631678462099444e+02
9.427429206610069059e+02
9.408227351823804838e+02
9.409026111672019397e+02
9.399825483721552928e+02
9.430625465537376613e+02
9.431426054682609674e+02
9.452227248718517103e+02
9.463029045204524436e+02
9.453831441698218896e+02
9.454634435755363029e+02
9.475438024929896983e+02
9.476242206773948737e+02
9.507046978837840925e+02
9.487852338670098788e+02
9.488658283817454731e+02
9.459464811824863091e+02
9.490271920235497873e+02
9.481079606590766389e+02
9.501887868430317212e+02
9.482696703292043594e+02
9.463506108712094829e+02
9.444316082224883075e+02
9.465126621363084496e+02
9.485937723657660854e+02
9.486749386637851558e+02
9.477561607831189576e+02
9.458374384763510534e+02
9.439187714958953848e+02
9.470001595939974095e+02
9.460816025227350110e+02
9.481631000340187256e+02
9.492446518795931070e+02
9.453262578110371805e+02
9.444079175797648986e+02
9.464896309370266181e+02
9.475713976339092142e+02
9.456532174213372173e+02
9.467350900500732678e+02
9.458170152707192528e+02
9.428989928337165338e+02
9.429810224893475379e+02
9.450631039877354169e+02
9.471452370788458666e+02
9.452274215124872399e+02
9.433096570383114567e+02
9.393919434058147999e+02
9.414742803643388243e+02
9.455566676630708116e+02
9.446391050510447940e+02
9.427215922771421219e+02
9.428041290900924878e+02
9.388867152384743804e+02
9.419693504707162219e+02
9.440520345350964817e+02
9.441347671797453813e+02
9.412175481526448948e+02
9.413003772016297717e+02
9.373832540743883328e+02
9.404661785184633800e+02
9.445491502812526505e+02
9.456321691100096132e+02
9.427152347518447186e+02
9.407983469537255132e+02
9.408815054624777758e+02
9.389647100247863136e+02
9.430479603871956442e+02
9.431312562961106778e+02
9.412145974977976266e+02
9.392979837383848007e+02
9.383814147638631766e+02
9.404648903200873065e+02
9.425484101527763414e+02
9.426319740075143727e+02
9.417155816297513411e+02
9.417992327648039463e+02
9.408829271578562157e+02
9.429666645539606407e+02
9.430504446980385183e+02
9.451342673348810877e+02
9.452181322091499851e+02
9.433020390653783807e+02
9.423859876479713193e+02
9.424699777012068580e+02
9.465540089692367474e+02
9.476380811960871142e+02
9.467221941256595983e+02
9.438063475017313522e+02
9.438905410679567467e+02
9.469747745678675983e+02
9.460590477448739648e+02
9.481433603422652823e+02
9.472277121032104787e+02
9.473121027707596795e+02
9.423965320878443208e+02
9.444809997972779456e+02
9.475655056417572268e+02
9.496500493638628768e+02
9.477346307060598747e+02
9.478192494106988306e+02
9.439039052200165543e+02
9.459885978761368506e+02
9.480733271210709745e+02
9.501580926967191090e+02
9.502428943448704786e+02
9.503277318072047137e+02
9.534126048252921919e+02
9.564975131405948332e+02
9.615824564944672375e+02
9.626674346281572525e+02
9.627524472828067701e+02
9.618374941994524079e+02
9.609225751190266465e+02
9.650076897823580566e+02
9.690928379301728910e+02
9.671780193030948567e+02
9.672632336416468206e+02
9.703484806862511505e+02
9.694337601772305106e+02
9.685190718548088853e+02
9.676044154591120332e+02
9.676897907301685109e+02
9.667751974079104684e+02
9.648606352321743316e+02
9.629461039427018250e+02
9.660316032791400858e+02
9.671171329810437101e+02
9.652026927878741844e+02
9.672882824390013639e+02
9.683739016737046086e+02
9.704595502311727842e+02
9.755452278505053982e+02
9.706309342707138512e+02
9.657166692307210951e+02
9.628024324693640210e+02
9.608882237253926633e+02
9.569740427374720184e+02
9.550598892441825001e+02
9.541457629840208483e+02
9.542316636954006981e+02
9.513175911166534888e+02
9.494035449860294875e+02
9.454895250416983572e+02
9.455755310217498391e+02
9.486615626641948893e+02
9.487476197069661339e+02
9.488337018879188918e+02
9.479198089448319706e+02
9.460059406154082353e+02
9.460920966372758585e+02
9.471782767479884342e+02
9.492644806850265695e+02
9.473507081857981120e+02
9.454369589876390592e+02
9.425232328278144678e+02
9.466095294435194774e+02
9.476958485718794236e+02
9.497821899499513165e+02
9.498685533147244087e+02
9.499549384031208774e+02
9.460413449519967344e+02
9.461277726981426213e+02
9.482142213782847193e+02
9.463006907290854315e+02
9.383871804871438371e+02
9.274736903889975110e+02
9.215602201711218413e+02
9.166467695699324167e+02
9.127333383217847995e+02
9.088199261629754346e+02
9.179065328297425594e+02
9.389931580582676816e+02
9.670798015846750104e+02
1.004166463145033390e+03
1.047253142475356753e+03
1.103339839311604692e+03
1.155426553389683704e+03
1.193513284445447653e+03
1.203600032214698786e+03
1.177686796433188420e+03
1.112773576836617394e+03
1.022860373160637664e+03
9.539471851408526391e+02
9.250340125128179807e+02
9.221208550120425116e+02
9.372077123739887838e+02
9.462945843340742158e+02
9.483814706276718880e+02
9.464683709901109978e+02
9.435552851566778827e+02
9.426422128626170434e+02
9.437291538431315985e+02
9.458161078333841942e+02
9.459030745684980275e+02
9.449900537835570731e+02
9.430770452136076756e+02
9.411640485936591176e+02
9.432510636586836199e+02
9.443380901436183876e+02
9.434251277833657241e+02
9.455121763127937129e+02
9.425992354667375821e+02
9.396863049799999317e+02
9.397733845873520977e+02
9.428604740235343797e+02
9.439475730232571777e+02
9.440346813212019015e+02
9.431217986520216527e+02
9.392089247503417937e+02
9.412960593507613112e+02
9.433832021878528167e+02
9.444703529961642516e+02
9.445575115102193422e+02
9.426446774645178266e+02
9.437318505935373878e+02
9.428190306317331988e+02
9.459062173135399689e+02
9.469934103733720576e+02
9.460806095456240428e+02
9.451678145646721987e+02
9.422550251648749509e+02
9.453422410805736718e+02
9.464294620460935903e+02
9.475166877957444740e+02
9.466039180638215385e+02
9.436911525846063569e+02
9.437783910923673147e+02
9.458656333213608605e+02
9.479528790058321874e+02
9.490401278800155751e+02
9.501273796781358669e+02
9.462146341344089251e+02
9.443018909830427674e+02
9.463891499582376809e+02
9.464764107941877000e+02
9.495636732250812884e+02
9.486509369851019073e+02
9.497382018084290394e+02
9.488254674292387563e+02
9.489127335817050835e+02
9.500000000000000000e+02
9.530872664182949165e+02
9.511745325707612437e+02
9.482617981915709606e+02
9.493490630148980927e+02
9.504363267749187116e+02
9.485235892058123000e+02
9.516108500417623191e+02
9.506981090169572326e+02
9.497853658655909612e+02
9.468726203218642468e+02
9.489598721199844249e+02
9.500471209941678126e+02
9.491343666786390258e+02
9.512216089076326853e+02
9.503088474153936431e+02
9.493960819361784615e+02
9.484833122042555260e+02
9.485705379539064097e+02
9.516577589194263282e+02
9.507449748351250491e+02
9.508321854353278013e+02
9.499193904543759572e+02
9.500065896266280561e+02
9.500937826864599174e+02
9.501809693682668012e+02
9.512681494064627259e+02
9.483553225354821734e+02
9.474424884897806578e+02
9.495296470038356347e+02
9.496167978121471833e+02
9.517039406492388025e+02
9.517910752496582063e+02
9.498782013479783473e+02
9.499653186787980985e+02
9.490524269767428223e+02
9.531395259764656203e+02
9.542266154126479023e+02
9.543136950199999546e+02
9.524007645332624179e+02
9.504878236872062871e+02
9.575748722166342759e+02
9.586619098563816124e+02
9.627489363413163801e+02
9.628359514063408824e+02
9.619229547863922107e+02
9.630099462164429269e+02
9.630969254315020862e+02
9.651838921666158058e+02
9.652708461568684015e+02
9.653577871373828430e+02
9.684447148433221173e+02
9.685316290098890022e+02
9.716185293723279983e+02
9.747054156659256705e+02
9.757922876260112162e+02
9.768791449879573747e+02
9.739659874871819056e+02
9.720528148591472473e+02
9.761396268393623359e+02
9.782264231633827194e+02
9.793132035668115805e+02
9.753999677853011008e+02
9.734867155545522337e+02
9.725734466103162958e+02
9.726601606883953082e+02
9.737468575246433602e+02
9.758335368549667237e+02
9.759201984153251033e+02
9.760068419417323184e+02
9.730934671702573269e+02
9.741800738370246791e+02
9.752666616782152005e+02
9.763532304300674696e+02
9.774397798288781587e+02
9.755263096110026027e+02
9.726128195128561629e+02
9.736993092709145685e+02
9.737857786217152807e+02
9.758722273018573787e+02
9.769586550480032656e+02
9.750450615968791226e+02
9.721314466852755913e+02
9.752178100500486835e+02
9.773041514281205764e+02
9.773904705564805226e+02
9.764767671721855322e+02
9.745630410123609408e+02
9.716492918142018880e+02
9.727355193149734305e+02
9.738217232520115658e+02
9.729079033627241415e+02
9.719940593845917647e+02
9.740801910551680294e+02
9.711662981120811082e+02
9.732523802930338661e+02
9.743384373358051107e+02
9.734244689782500473e+02
9.745104749583016428e+02
9.705964550139705125e+02
9.686824088833465112e+02
9.697683363045993019e+02
9.698542370159791517e+02
9.729401107558174999e+02
9.720259572625279816e+02
9.701117762746074504e+02
9.671975675306359790e+02
9.692833307692787912e+02
9.723690657292862625e+02
9.704547721494946018e+02
9.725404497688272158e+02
9.706260983262953914e+02
9.687117175609986361e+02
9.717973072121259293e+02
9.748828670189562899e+02
9.739683967208598006e+02
9.730538960572982887e+02
9.721393647678256684e+02
9.692248025920895316e+02
9.713102092698314891e+02
9.713955845408879668e+02
9.734809281451911147e+02
9.735662398227693757e+02
9.696515193137488495e+02
9.707367663583531794e+02
9.708219806969051433e+02
9.729071620698271090e+02
9.739923102176418297e+02
9.710774248809733535e+02
9.711625058005475921e+02
9.712475527171932299e+02
9.733325653718427475e+02
9.744175435055327625e+02
9.775024868594052805e+02
9.785873951747078081e+02
9.776722681927952863e+02
9.747571056551295214e+02
9.738419073032808910e+02
9.759266728789290255e+02
9.760114021238631494e+02
9.740960947799833320e+02
9.731807505893011694e+02
9.732653692939401253e+02
9.743499506361371232e+02
9.774344943582427732e+02
9.765190002027220544e+02
9.776034679121556792e+02
9.736878972292403205e+02
9.747722878967895213e+02
9.788566396577348314e+02
9.839409522551260352e+02
9.890252254321324017e+02
9.861094589320432533e+02
9.891936524982686478e+02
9.872778058743405154e+02
9.923619188039128858e+02
9.924459910307632526e+02
9.945300222987932557e+02
9.956140123520286807e+02
9.976979609346216193e+02
9.987818677908500149e+02
9.988657326651189123e+02
1.001949555301961482e+03
1.003033335446039359e+03
1.002117072842143784e+03
9.972007672351961673e+02
9.952844183702486589e+02
9.963680259924856273e+02
9.964515898472235449e+02
9.965351096799125798e+02
9.966185852361368234e+02
9.957020162616151993e+02
9.937854025022023734e+02
9.968687437038893222e+02
1.002952039612804356e+03
1.005035289975213573e+03
1.002118494537522224e+03
9.912016530462744868e+02
9.882847652481552814e+02
9.883678308899903868e+02
9.854508497187473495e+02
9.845338214815366200e+02
9.826167459256116672e+02
9.796996227983702283e+02
9.797824518473551052e+02
9.768652328202546187e+02
9.789479654649035183e+02
9.800306495292837781e+02
9.811132847615255059e+02
9.801958709099073985e+02
9.772784077228578781e+02
9.783608949489552060e+02
9.784433323369291884e+02
9.805257196356611757e+02
9.806080565941852001e+02
9.796903429616885433e+02
9.777725784875127601e+02
9.758547629211541334e+02
9.769368960122645831e+02
9.770189775106525758e+02
9.771010071662833525e+02
9.761829847292808608e+02
9.732649099499267322e+02
9.743467825786627827e+02
9.764286023660907858e+02
9.785103690629733819e+02
9.775920824202351014e+02
9.726737421889628195e+02
9.677553481204067793e+02
9.628368999659812744e+02
9.569183974772649890e+02
9.529998404060025905e+02
9.490812285041046152e+02
9.401625615236489466e+02
9.362438392168810424e+02
9.453250613362148442e+02
9.684062276342339146e+02
9.954873378636914367e+02
1.024568391777511806e+03
1.063649389128790517e+03
1.117730329670795527e+03
1.173811213156968279e+03
1.206892039340923247e+03
1.215972807976450213e+03
1.190053518817513577e+03
1.133134171618254413e+03
1.055214766132990235e+03
9.892953021162159075e+02
9.573757793226051263e+02
9.514561975070103017e+02
9.605365564244636971e+02
9.666168558301781104e+02
9.706970954795475564e+02
9.727772751281481760e+02
9.728573945317390326e+02
9.749374534462623387e+02
9.740174516278448209e+02
9.740973888327979466e+02
9.721772648176195162e+02
9.752570793389930941e+02
9.763368321537900556e+02
9.764165230190692455e+02
9.774961516920786835e+02
9.775757179302554505e+02
9.736552214912271666e+02
9.757346621328119909e+02
9.768140396130199861e+02
9.778933536900539139e+02
9.769726041223088941e+02
9.750517906683745650e+02
9.721309130870349691e+02
9.732099711372694628e+02
9.722889645782536263e+02
9.753678931693596041e+02
9.764467566701572423e+02
9.725255548404147703e+02
9.736042874400991423e+02
9.756829542293771738e+02
9.747615549686163376e+02
9.758400894183851051e+02
9.749185573394538551e+02
9.759969584927957840e+02
9.740752926395872464e+02
9.791535595412090061e+02
9.792317589592463491e+02
9.803098906554904488e+02
9.783879543919384787e+02
9.764659499307948636e+02
9.765438770344715067e+02
9.776217354655891540e+02
9.796995249869772806e+02
9.777772453616757957e+02
9.758548963529347020e+02
9.759324777242156870e+02
9.730099892391925778e+02
9.760874306617516822e+02
9.771648017559930395e+02
9.782421022862309883e+02
9.743193320169945082e+02
9.743964907130286974e+02
9.734735781392945455e+02
9.745505940609705249e+02
9.766275382434527046e+02
9.787044104523557735e+02
9.787812104535137223e+02
9.788579380129804122e+02
9.799345928970303703e+02
9.810111748721594722e+02
9.830876837050857375e+02
9.811641191627501257e+02
9.792404810123168772e+02
9.783167690211745366e+02
9.783929829569366348e+02
9.774691225874423708e+02
9.775451876807570670e+02
9.766211780051733058e+02
9.786970933292116115e+02
9.767729334216203370e+02
9.758486980513777098e+02
9.799243869876914914e+02
9.800000000000000000e+02
9.830755368579729065e+02
9.791509973315116895e+02
9.802263811907509989e+02
9.783016882060582020e+02
9.793769181480352017e+02
9.814520707875185508e+02
9.825271458955802473e+02
9.796021432435285305e+02
9.766770626029084497e+02
9.737519037455026591e+02
9.728266664433321012e+02
9.789013504686564602e+02
9.779759555939755273e+02
9.790504815920287456e+02
9.761249282357973698e+02
9.731992952985040120e+02
9.762735825536134371e+02
9.763477897748338137e+02
9.804219167361173959e+02
9.814959632116601824e+02
9.775699289759041903e+02
9.776438138035364318e+02
9.787176174694913016e+02
9.817913397489497811e+02
9.848649804173411439e+02
9.849385392503431831e+02
9.850120160238827793e+02
9.840854105141369246e+02
9.881587224975335175e+02
9.892319517507513638e+02
9.943050980507214263e+02
9.933781611746275075e+02
9.934511408999065907e+02
9.915240370042498625e+02
9.955968492656029412e+02
9.966695774621672399e+02
9.997422213723999675e+02
9.998147807750152651e+02
9.978872554489844333e+02
9.989596451735372966e+02
1.001031949728162090e+03
1.002104168892606594e+03
1.003176302446878594e+03
1.003248350171246898e+03
1.001320311846241680e+03
9.993921872526550487e+02
1.000463976171542186e+03
1.001535678384221569e+03
1.004607293672275773e+03
1.002678821817552262e+03
1.001750262602163957e+03
9.978216158084896961e+02
9.978928812191752513e+02
9.999640586171340146e+02
9.990351477855469966e+02
9.981061485078644182e+02
9.971770605678058246e+02
9.952478837493607671e+02
9.973186178367894854e+02
9.983892626146237035e+02
9.994598178676670841e+02
9.995302833809962522e+02
9.976006589399609084e+02
9.956709443301850797e+02
9.977411393375671196e+02
9.968112437482808446e+02
9.988812573487759892e+02
9.959511799257792291e+02
9.980210112662941810e+02
9.960907511576024262e+02
9.981603993872640785e+02
9.972299557431186940e+02
9.992994200132854985e+02
9.983687919861642968e+02
9.954380714504360412e+02
9.935072581950634003e+02
9.945763520092915542e+02
9.946453526826488769e+02
9.937142600049471639e+02
9.917830737662828824e+02
9.908517937570373988e+02
9.929204197678776609e+02
9.929889515897569936e+02
9.950573890139155537e+02
9.931257318318810121e+02
9.931939798354693494e+02
9.912621328167853108e+02
9.903301905682229744e+02
9.933981528824668885e+02
9.914660195524918436e+02
9.935337903715643506e+02
9.936014651332425274e+02
9.926690436313774626e+02
9.907365256601134433e+02
9.928039110138881824e+02
9.948711994874344100e+02
9.929383908757798736e+02
9.940054849742477927e+02
9.920724815784578823e+02
9.911393804843269209e+02
9.912061814880693191e+02
9.922728843861975747e+02
9.953394889755229542e+02
9.954059950531565164e+02
9.964724024165092260e+02
9.935387108632925219e+02
9.966049201915195681e+02
9.946710301995052532e+02
9.937370406858669867e+02
9.958029514495253807e+02
9.948687622897048186e+02
9.929344730059340236e+02
9.950000833980468542e+02
9.970655932661826455e+02
9.981310024107868912e+02
9.971963106326121533e+02
9.942615177327180618e+02
9.923266235124725654e+02
9.923916277735523863e+02
9.964565303179429065e+02
9.955213309479399868e+02
9.995860294661495118e+02
9.946506256754886408e+02
9.927151193791861488e+02
9.937795103807829946e+02
9.998437984841330035e+02
1.001907983493403549e+03
1.005972065213075894e+03
1.006036043447945872e+03
1.005099918003124913e+03
1.006163688684039926e+03
1.008227355296434439e+03
1.012290917646368825e+03
1.014354375540221099e+03
1.014417728784687711e+03
1.011480977186783548e+03
1.014544120553842845e+03
1.017607158693520319e+03
1.017670091413790601e+03
1.016732918522949831e+03
1.016795639829615766e+03
1.012858255142728240e+03
1.010920764271550297e+03
1.012983167025668308e+03
1.014045463214992537e+03
1.012107652649758165e+03
1.009169735140525177e+03
1.006231710498179723e+03
1.007293578533934010e+03
1.010355339059327321e+03
1.016416991886226469e+03
1.016478536826826030e+03
1.010539973693649586e+03
1.003601302299549843e+03
1.004662522457709088e+03
1.004723633981640205e+03
1.000784636685186797e+03
9.978455303825240890e+02
9.949063148881593861e+02
9.919669900169325274e+02
9.920275555840165680e+02
9.950880114049181202e+02
9.971483572954783767e+02
9.982085930718733380e+02
9.972687185506143805e+02
9.943287335485488256e+02
9.943886378828605075e+02
9.954484313710705692e+02
9.955081138310376900e+02
9.935676850809585403e+02
9.916271449393689181e+02
9.906864932251438631e+02
9.907457297574979975e+02
9.908048543559866630e+02
9.918638668405061480e+02
9.909227670312942564e+02
9.879815547489305345e+02
9.890402298143375219e+02
9.910987920487808651e+02
9.901572412738696585e+02
9.922155773115576949e+02
9.922737999841431247e+02
9.913319091142695925e+02
9.883899045249265782e+02
9.854477860394500794e+02
9.805055534815229521e+02
9.765632066751755929e+02
9.736207454447861664e+02
9.676781696150818561e+02
9.577354790111386365e+02
9.537926734583819552e+02
9.638497527825877569e+02
9.839067168098825960e+02
1.009963565366743978e+03
1.039020298280001498e+03
1.079076915376836951e+03
1.134133416484784448e+03
1.185189801431732121e+03
1.218246070045921670e+03
1.229302222155948812e+03
1.206358257590764879e+03
1.144414176179676133e+03
1.068469977752344676e+03
1.011525662138789471e+03
9.795812291693860061e+02
9.686366786748675395e+02
9.696920104863253300e+02
9.757472244352089774e+02
9.838023203533273318e+02
9.878572980728486073e+02
9.889121574263010643e+02
9.879668982465736917e+02
9.880215203669164339e+02
9.850760236209409868e+02
9.831304078426206843e+02
9.871846728662919759e+02
9.862388185266541996e+02
9.862928446587701501e+02
9.863467510980668749e+02
9.864005376803361287e+02
9.894542042417344874e+02
9.895077506187844847e+02
9.915611766483744987e+02
9.876144821677595473e+02
9.876676670145617436e+02
9.867207310267708635e+02
9.897736740427448012e+02
9.898264959012097961e+02
9.908791964412614561e+02
9.889317755023646441e+02
9.869842329243545009e+02
9.860365685474366728e+02
9.860887822121876525e+02
9.871408737595556886e+02
9.871928430308608995e+02
9.852446898677957279e+02
9.862964141124257367e+02
9.843480156071900637e+02
9.833994941949015356e+02
9.864508497187473495e+02
9.855020820222897555e+02
9.865531909494663978e+02
9.836041763445903143e+02
9.836550380523513013e+02
9.847057759178159131e+02
9.897563897864276896e+02
9.888068795040080659e+02
9.868572449167563718e+02
9.859074858712511968e+02
9.859576022144495937e+02
9.870075937936885566e+02
9.870574604566851349e+02
9.881072020515368877e+02
9.841568184267221113e+02
9.852063094311008626e+02
9.842556749139147314e+02
9.863049147247882047e+02
9.873540287137280984e+02
9.864030167311246942e+02
9.874518786277520803e+02
9.855006142547683794e+02
9.845492234637164302e+02
9.845977061065241287e+02
9.876460620355049969e+02
9.876942911033584096e+02
9.867423931631703908e+02
9.857903680684134997e+02
9.858382156729480812e+02
9.868859358310219250e+02
9.899335283972711750e+02
9.919809932267206705e+02
9.900283301747841733e+02
9.890755390972652776e+02
9.871226198503574096e+02
9.881695722906442825e+02
9.902163962751006920e+02
9.902630916610928580e+02
9.893096583063781964e+02
9.883560960691067976e+02
9.884024048078213127e+02
9.864485843814570671e+02
9.864946346493431975e+02
9.855405554712025378e+02
9.835863467071524155e+02
9.826320082177046515e+02
9.806775398637663557e+02
9.807229415066403817e+02
9.817682130080253273e+02
9.828133542300164436e+02
9.808583650351056349e+02
9.779032452861822549e+02
9.739479948465332200e+02
9.759926135798436917e+02
9.790371013501971902e+02
9.820814580220762764e+02
9.801256834603628931e+02
9.771697775303385924e+02
9.792137400976852177e+02
9.782575710284852448e+02
9.823012701892218956e+02
9.823448374467801614e+02
9.823882726684464615e+02
9.814315757219095531e+02
9.814747464752609858e+02
9.845177847969949880e+02
9.845606905560094901e+02
9.906034636216060107e+02
9.926461038634904526e+02
9.906886111517732161e+02
9.937309853569697680e+02
9.957732263500008685e+02
9.978153340021931399e+02
1.000857308185279408e+03
1.000899148771399041e+03
1.002940855633098295e+03
1.003982428643330877e+03
1.003023867675458064e+03
1.007065172603249607e+03
1.009106343300883395e+03
1.008147379642946362e+03
1.010188281504434713e+03
1.009229048760754154e+03
1.010269681287720800e+03
1.010310178961560723e+03
1.011350541658911084e+03
1.011390769256820022e+03
1.011430861632747451e+03
1.010470818664564831e+03
1.010510640230556305e+03
1.011550326209418358e+03
1.014589876480260727e+03
1.014629290922606287e+03
1.012668569416391847e+03
1.010707711841968376e+03
1.011746718080101232e+03
1.013785588011970617e+03
1.013824321519172031e+03
1.013862918483716385e+03
1.010901378788030797e+03
1.007939702314958367e+03
1.007977888947758970e+03
1.009015938570109711e+03
1.013053851066104585e+03
1.011091626320255727e+03
1.008129264217493073e+03
1.006166764643165038e+03
1.007204127483038974e+03
1.010241352623300941e+03
1.011278439950556958e+03
1.009315389351832437e+03
1.008352200714573200e+03
1.008388873926645374e+03
1.007425408876336064e+03
1.009461805452353474e+03
1.010498063543827129e+03
1.008534183040308903e+03
1.008570163831772220e+03
1.006606005808613645e+03
1.007641708861652091e+03
1.007677272882130069e+03
1.010712697761713230e+03
1.009747983392491278e+03
1.008783129666978084e+03
1.007818136478112024e+03
1.008853003719256208e+03
1.008887731284199049e+03
1.010922319067154376e+03
1.009956766962761776e+03
1.006991074866086819e+03
1.005025242672621971e+03
1.006059270278286021e+03
1.006093157579424997e+03
1.007126904472812384e+03
1.008160510855649022e+03
1.005193976625564346e+03
1.003227301680615710e+03
1.004260485919289067e+03
1.006293529240499765e+03
1.006326431543591866e+03
1.008359192728339394e+03
1.004391812694945997e+03
1.004424291344045741e+03
1.005456628576702769e+03
1.008488824294412552e+03
1.009520878399101207e+03
1.009552790793126405e+03
1.006584561379277488e+03
1.004616190060775580e+03
1.005647676741274495e+03
1.010679021324860059e+03
1.008710223716051473e+03
1.009741283819800742e+03
1.007772201541493359e+03
1.004802976786948648e+03
1.004833609462419872e+03
1.004864099474594582e+03
1.006894446730594836e+03
1.005924651137977776e+03
1.005954712604735391e+03
1.003984631039295436e+03
1.006014406350520972e+03
1.008044038447711273e+03
1.009073527240601834e+03
1.008102872639364818e+03
1.007132074554608948e+03
1.006161132897380071e+03
1.008190047579161501e+03
1.009218818511874019e+03
1.010247445607876557e+03
1.009275928779965852e+03
1.008304267941377248e+03
1.007332463005784803e+03
1.008360513887301408e+03
1.009388420500479242e+03
1.012416182760309994e+03
1.012443800582224867e+03
1.010471273882095147e+03
1.009498602576232656e+03
1.011525786581389184e+03
1.015552825814757625e+03
1.016579720193971866e+03
1.018606469637106898e+03
1.016633074062679270e+03
1.016659533389647322e+03
1.019685847537411291e+03
1.023712016425813886e+03
1.023738039975139827e+03
1.024763918106117217e+03
1.023789650739916510e+03
1.024815237798151884e+03
1.026840679202880438e+03
1.028865974876603332e+03
1.030891124742265674e+03
1.030916128723256634e+03
1.029940986743409667e+03
1.028965698727002973e+03
1.027990264598759268e+03
1.028014684283847146e+03
1.029038957707879717e+03
1.028063084796915973e+03
1.028087065477460555e+03
1.026110899676464214e+03
1.026134587321324034e+03
1.024158128339882978e+03
1.030181522660431256e+03
1.028204770211705409e+03
1.026227870922889906e+03
1.021250824723615551e+03
1.025273631543961301e+03
1.030296291314453356e+03
1.034318803966066525e+03
1.031341169430222863e+03
1.027363387638793938e+03
1.020385458524098567e+03
1.017407382018905423e+03
1.016429158056431561e+03
1.015450786570343439e+03
1.011472267494756920e+03
1.008493600764237385e+03
1.009514786313799846e+03
1.005535824078909513e+03
1.007556713995481800e+03
1.005577455999882318e+03
1.008598050028927332e+03
1.007618496019883878e+03
1.008638793910469872e+03
1.007658943638854453e+03
1.007678945143657984e+03
1.010698798363952619e+03
1.011718503239261736e+03
1.008738059709561071e+03
1.008757467715278153e+03
1.006776727197292871e+03
1.008795838096937359e+03
1.008814800355996681e+03
1.006833613916708373e+03
1.006852278721763128e+03
1.000870794714304793e+03
1.001889161837930260e+03
1.006907380036690256e+03
1.007925449255088893e+03
1.007943369438084233e+03
1.005961140531088290e+03
1.002978762479967259e+03
1.004996235231041510e+03
1.004013558731086050e+03
1.002030732927330632e+03
9.960477577674595295e+02
9.880646331996122171e+02
9.830813591723831451e+02
9.790979356348221927e+02
9.761143625364344416e+02
9.711306398271807439e+02
9.701467674574777220e+02
9.821627453781977692e+02
1.008178573540669277e+03
1.040194251896677088e+03
1.075209780398462044e+03
1.123225158998721781e+03
1.176240387650610501e+03
1.221255466307738743e+03
1.250270394924174525e+03
1.260285173454442656e+03
1.240299801853525196e+03
1.178314280076861451e+03
1.097328608080348431e+03
1.027342785820340396e+03
9.883568132536494204e+02
9.823706903375455113e+02
9.893844170297568326e+02
9.973979932884694790e+02
1.001411419072327590e+03
1.000424694340434144e+03
9.984378190523502781e+02
9.974507931680958563e+02
1.002463616648149468e+03
1.002476289453448430e+03
9.994888115453894670e+02
9.985011828858279159e+02
9.965134034370785230e+02
9.975254731619154427e+02
1.000537392023572124e+03
9.995491599857417668e+02
9.995607770125770912e+02
1.000572243068690568e+03
9.975835581191545316e+02
9.995947221295015197e+02
9.986057350657239340e+02
1.000616596894274380e+03
9.996273075820661234e+02
9.976378670964722915e+02
9.986482754053268991e+02
1.000658532476924279e+03
1.001668638280019877e+03
1.001678592783829345e+03
1.002688395958029787e+03
1.002698047772758969e+03
9.997075481986157683e+02
1.000716897206660178e+03
1.002726094768413645e+03
1.003735140855858731e+03
1.003744035441439451e+03
1.003752778498061275e+03
1.001761369999091585e+03
1.001769809918358987e+03
1.001778098230154001e+03
1.003786234909229051e+03
1.002794219930798477e+03
1.000802053270538522e+03
9.998097349045872306e+02
1.001817264809545350e+03
1.003824642962475195e+03
1.002831869340901790e+03
1.003838943922812405e+03
1.002845866686656450e+03
9.998526376113460401e+02
9.988592566762557681e+02
1.001865723861222932e+03
1.003872039146547195e+03
1.004878202512991265e+03
1.003884213941780217e+03
9.998900734146025115e+02
9.998957809136089736e+02
1.002901336421413589e+03
1.003906739921093390e+03
1.004911991396188228e+03
1.001917090830701454e+03
9.999220382090990142e+02
1.000926833516310580e+03
1.001931476737728644e+03
1.003935967859209313e+03
1.002940306867071740e+03
1.000944493748098466e+03
1.000948528489535761e+03
9.999524110790929399e+02
1.000956141504942934e+03
1.003959719755722290e+03
1.003963145820531054e+03
1.001966419688932774e+03
1.001969541350954842e+03
1.002972510797087807e+03
1.004975328018286632e+03
1.003977993005969211e+03
1.004980505752017734e+03
1.002982866248777896e+03
9.999850744890591159e+02
1.000987130466134886e+03
1.002989034173742311e+03
1.001990785606082227e+03
1.000992384757819536e+03
1.000993831624082986e+03
9.979951262004651653e+02
9.969962684830226181e+02
9.989972584682756178e+02
9.999980961532085075e+02
9.989987815352696998e+02
9.969993146123713359e+02
9.949996953828895130e+02
9.989999238456643980e+02
9.970000000000000000e+02
9.979999238456643980e+02
9.999996953828895130e+02
9.969993146123713359e+02
9.969987815352696998e+02
9.979980961532085075e+02
9.999972584682756178e+02
1.001996268483022618e+03
1.003995126200465165e+03
1.006993831624082986e+03
1.007992384757819536e+03
1.010990785606082227e+03
1.014989034173742311e+03
1.015987130466134886e+03
1.015985074489059116e+03
1.016982866248777896e+03
1.015980505752017734e+03
1.017977993005969211e+03
1.017975328018286518e+03
1.021972510797087807e+03
1.022969541350954842e+03
1.019966419688932774e+03
1.018963145820531054e+03
1.021959719755722290e+03
1.023956141504942934e+03
1.024952411079092826e+03
1.023948528489535761e+03
1.021944493748098466e+03
1.020940306867071740e+03
1.024935967859209313e+03
1.026931476737728644e+03
1.024926833516310580e+03
1.025922038209099128e+03
1.023917090830701454e+03
1.020911991396188228e+03
1.023906739921093390e+03
1.023901336421413589e+03
1.023895780913608974e+03
1.023890073414602512e+03
1.022884213941780217e+03
1.020878202512991265e+03
1.021872039146547195e+03
1.025865723861222932e+03
1.023859256676255768e+03
1.024852637611345926e+03
1.023845866686656450e+03
1.019838943922812405e+03
1.020831869340901790e+03
1.019824642962475195e+03
1.020817264809545350e+03
1.020809734904587231e+03
1.018802053270538522e+03
1.016794219930798477e+03
1.018786234909229051e+03
1.020778098230154001e+03
1.019769809918358987e+03
1.019761369999091585e+03
1.017752778498061275e+03
1.016744035441439451e+03
1.016735140855858731e+03
1.017726094768413645e+03
1.016716897206660178e+03
1.017707548198615768e+03
1.016698047772758969e+03
1.013688395958029787e+03
1.015678592783829345e+03
1.016668638280019877e+03
1.019658532476924279e+03
1.017648275405326899e+03
1.014637867096472291e+03
1.015627307582066123e+03
1.015616596894274380e+03
1.014605735065723934e+03
1.015594722129501520e+03
1.016583558119154532e+03
1.012572243068690568e+03
1.010560777012577091e+03
1.011549159985741767e+03
1.011537392023572238e+03
1.015525473161915443e+03
1.014513403437078523e+03
1.011501182885827916e+03
1.009488811545389467e+03
1.010476289453448430e+03
1.011463616648149468e+03
1.013450793168095856e+03
1.013437819052350278e+03
1.010424694340434144e+03
1.009411419072327703e+03
1.010397993288469479e+03
1.009384417029756946e+03
1.015370690337545511e+03
1.013356813253649420e+03
1.013342785820340396e+03
1.010328608080348431e+03
1.011314280076861564e+03
1.013299801853525196e+03
1.013285173454442656e+03
1.015270394924174525e+03
1.011255466307738743e+03
1.008240387650610387e+03
1.010225158998721781e+03
1.012209780398462158e+03
1.012194251896677088e+03
1.012178573540669277e+03
1.010162745378197769e+03
1.008146767457477722e+03
1.009130639827180744e+03
1.011114362536434442e+03
1.013097935634822193e+03
1.014081359172383145e+03
1.010064633199612217e+03
1.009047757767459530e+03
1.012030732927330632e+03
1.013013558731086050e+03
1.014996235231041510e+03
1.013978762479967259e+03
1.013961140531088290e+03
1.010943369438084233e+03
1.013925449255088893e+03
1.013907380036690256e+03
1.015889161837930260e+03
1.013870794714304793e+03
1.013852278721763128e+03
1.010833613916708373e+03
1.012814800355996681e+03
1.015795838096937359e+03
1.016776727197292871e+03
1.017757467715278153e+03
1.016738059709561071e+03
1.019718503239261736e+03
1.023698798363952619e+03
1.026678945143657984e+03
1.024658943638854453e+03
1.024638793910469758e+03
1.024618496019883878e+03
1.023598050028927332e+03
1.028577455999882204e+03
1.028556713995481687e+03
1.029535824078909627e+03
1.032514786313799732e+03
1.032493600764237272e+03
1.030472267494757034e+03
1.031450786570343553e+03
1.033429158056431561e+03
1.031407382018905309e+03
1.030385458524098567e+03
1.029363387638793938e+03
1.027341169430223090e+03
1.027318803966066525e+03
1.032296291314453356e+03
1.032273631543961301e+03
1.030250824723615551e+03
1.027227870922889906e+03
1.028204770211705409e+03
1.033181522660431256e+03
1.036158128339882978e+03
1.037134587321324034e+03
1.031110899676464214e+03
1.023087065477460555e+03
1.019063084796915973e+03
1.017038957707879717e+03
1.016014684283847146e+03
1.014990264598759381e+03
1.011965698727002859e+03
1.009940986743409667e+03
1.006916128723256634e+03
1.007891124742265788e+03
1.006865974876603332e+03
1.009840679202880438e+03
1.006815237798151770e+03
1.005789650739916510e+03
1.003763918106117217e+03
1.004738039975139827e+03
1.005712016425813886e+03
1.006685847537411405e+03
1.007659533389647322e+03
1.003633074062679270e+03
1.002606469637106898e+03
1.003579720193971866e+03
1.005552825814757625e+03
1.004525786581389184e+03
1.005498602576232656e+03
1.003471273882095147e+03
1.003443800582224867e+03
1.004416182760309994e+03
1.004388420500479242e+03
1.005360513887301408e+03
1.004332463005784803e+03
1.002304267941377248e+03
9.962759287799658523e+02
9.922474456078765570e+02
9.852188185118741330e+02
9.831900475791615008e+02
9.811611328973800710e+02
9.811320745546089483e+02
9.761028726393648185e+02
9.750735272406019476e+02
9.690440384477112730e+02
9.610144063505209715e+02
9.559846310392954365e+02
9.619547126047355050e+02
9.729246511379777758e+02
9.958944467305948365e+02
1.020864099474594582e+03
1.046833609462419872e+03
1.082802976786948648e+03
1.127772201541493359e+03
1.175741283819800628e+03
1.218710223716051587e+03
1.242679021324860059e+03
1.248647676741274381e+03
1.216616190060775580e+03
1.155584561379277375e+03
1.073552790793126405e+03
1.013520878399101207e+03
9.834888242944125523e+02
9.804566285767027694e+02
9.834242913440457414e+02
9.933918126949459975e+02
9.943591927283393943e+02
9.963264315435918661e+02
9.962935292404997654e+02
9.962604859192890672e+02
9.982273016806157102e+02
9.981939766255643463e+02
9.961605108556490222e+02
9.931269044728122708e+02
9.970931575794249966e+02
9.980592702782860215e+02
9.970252426726219710e+02
9.969910748660869331e+02
9.949567669627616624e+02
9.929223190671543762e+02
9.978877312841990488e+02
9.968530037192562077e+02
9.988181364781119100e+02
9.947831296669780841e+02
9.937479833924912782e+02
9.947126977617132297e+02
9.986772728821300689e+02
9.986417088616522051e+02
9.976060058086136451e+02
9.965701638317722200e+02
9.935341830403089034e+02
9.954980635438271293e+02
9.984618054523534738e+02
9.994254088763360642e+02
9.983888739266454877e+02
9.963522007145732005e+02
9.933153893518325503e+02
9.962784399505569581e+02
9.982413526233009406e+02
9.982041274830388602e+02
9.961667646431650383e+02
9.921292642174930734e+02
9.910916263202557275e+02
9.940538510661045848e+02
9.980159385701097108e+02
9.959778889477589701e+02
9.969397023149583674e+02
9.979013787880307973e+02
9.958629184837163848e+02
9.958243215191720310e+02
9.977855880119706171e+02
9.997467180801012319e+02
9.997077118419683757e+02
9.956685694163918470e+02
9.966292909226062875e+02
9.935898764802607275e+02
9.975503262094183583e+02
9.965106402305563051e+02
9.954708186645648311e+02
9.954308616327474510e+02
9.943907692568200218e+02
9.963505416589110837e+02
9.973101789615607231e+02
9.962696812877208004e+02
9.952290487607541536e+02
9.911882815044347126e+02
9.921473796429463619e+02
9.951063433008833954e+02
9.970651726032496072e+02
1.001023867675458064e+03
9.959824286433308771e+02
9.959408556330982947e+02
9.908991487713990409e+02
9.918573081852794076e+02
9.928153340021931399e+02
9.957732263500008685e+02
9.957309853569698817e+02
9.946886111517732161e+02
9.926461038634904526e+02
9.946034636216060107e+02
9.965606905560094901e+02
9.955177847969949880e+02
9.974747464752608721e+02
9.954315757219095531e+02
9.933882726684464615e+02
9.933448374467801614e+02
9.943012701892218956e+02
9.932575710284852448e+02
9.912137400976852177e+02
9.891697775303385924e+02
9.901256834603628931e+02
9.910814580220762764e+02
9.930371013501971902e+02
9.929926135798436917e+02
9.939479948465332200e+02
9.939032452861822549e+02
9.888583650351056349e+02
9.918133542300164436e+02
9.927682130080253273e+02
9.957229415066403817e+02
9.936775398637663557e+02
9.946320082177046515e+02
9.925863467071524155e+02
9.965405554712025378e+02
9.984946346493431975e+02
1.001448584381457067e+03
1.002402404807821313e+03
1.003356096069106798e+03
1.001309658306378196e+03
1.004263091661092858e+03
1.007216396275100806e+03
1.009169572290644282e+03
1.008122619850357296e+03
1.008075539097265278e+03
1.011028330174784173e+03
1.011980993226720670e+03
1.012933528397271175e+03
1.013885935831021925e+03
1.013838215672948081e+03
1.010790368068413500e+03
1.010742393163170277e+03
1.008694291103358410e+03
1.013646062035504997e+03
1.013597706106524129e+03
1.012549223463716430e+03
1.011500614254768379e+03
1.009451878627752080e+03
1.010403016731124694e+03
1.014354028713728098e+03
1.014304914724788205e+03
1.016255674913914731e+03
1.014206309431100749e+03
1.013156818426722111e+03
1.014107202051536888e+03
1.014057460456685249e+03
1.013007593793688557e+03
1.011957602214449594e+03
1.008907485871251197e+03
1.005857244916756486e+03
1.006806879504007952e+03
1.009756389786427690e+03
1.008705775917815913e+03
1.008655038052351415e+03
1.008604176344590314e+03
1.007553190949466398e+03
1.007502082022289869e+03
1.008450849718747349e+03
1.010399494194901536e+03
1.007348015607190064e+03
1.004296414112425850e+03
1.002244689867795728e+03
1.004192843030860899e+03
1.006140873759555689e+03
1.008088782212187652e+03
1.004036568547436673e+03
1.005984232924354615e+03
1.001931775502364644e+03
1.003879196441261456e+03
1.004826495901209796e+03
1.005773674042744801e+03
1.006720731026770864e+03
1.004667667014561744e+03
9.986144821677595473e+02
1.000561176648374499e+03
1.001507750618784485e+03
1.002454204241734487e+03
1.003400537680336129e+03
1.000346751098066875e+03
9.972928446587701501e+02
9.992388185266540859e+02
9.991846728662919759e+02
1.000130407842620684e+03
9.990760236209408731e+02
9.980215203669164339e+02
9.959668982465738054e+02
9.969121574263010643e+02
9.978572980728484936e+02
1.000802320353327332e+03
9.997472244352089774e+02
9.996920104863253300e+02
9.956366786748675395e+02
9.985812291693860061e+02
1.000525662138789471e+03
9.994699777523447892e+02
1.000414176179676133e+03
9.983582575907649925e+02
9.953022221559489253e+02
9.972460700459216696e+02
9.971898014317321213e+02
9.991334164847844477e+02
1.000076915376836837e+03
9.980202982800014979e+02
9.959635653667440920e+02
9.979067168098825960e+02
9.978497527825878706e+02
9.997926734583819552e+02
9.957354790111386365e+02
9.956781696150818561e+02
9.926207454447862801e+02
9.935632066751755929e+02
9.955055534815230658e+02
9.974477860394500794e+02
9.983899045249265782e+02
9.943319091142695925e+02
9.942737999841431247e+02
9.952155773115576949e+02
9.991572412738696585e+02
9.990987920487808651e+02
9.980402298143375219e+02
9.949815547489305345e+02
9.969227670312941427e+02
9.978638668405062617e+02
1.000804854355986777e+03
1.003745729757497998e+03
1.004686493225143749e+03
1.007627144939368918e+03
1.008567685080958540e+03
1.007508113831037690e+03
1.008448431371070569e+03
1.009388637882860621e+03
1.008328733548548826e+03
1.010268718550614381e+03
1.009208593071873338e+03
1.012148357295478490e+03
1.014088011404918120e+03
1.019027555584016568e+03
1.017966990016932527e+03
1.014906314888159500e+03
1.012845530382524203e+03
1.014784636685186797e+03
1.014723633981640205e+03
1.013662522457709088e+03
1.014601302299549843e+03
1.011539973693649586e+03
1.011478536826826030e+03
1.013416991886226469e+03
1.012355339059327434e+03
1.009293578533934010e+03
1.009231710498179723e+03
1.008169735140525177e+03
1.012107652649758165e+03
1.015045463214992537e+03
1.017983167025668308e+03
1.015920764271550297e+03
1.010858255142728240e+03
1.005795639829615766e+03
1.002732918522949831e+03
1.002670091413790715e+03
1.004607158693520319e+03
1.004544120553842959e+03
1.000480977186783434e+03
9.944177287846877107e+02
9.913543755402210991e+02
9.902909176463688254e+02
9.922273552964344390e+02
9.921636886840399256e+02
9.910999180031249125e+02
9.880360434479458718e+02
9.859720652130757799e+02
9.879079834934034352e+02
9.878437984841330035e+02
9.887795103807829946e+02
9.877151193791861488e+02
9.866506256754886408e+02
9.845860294661495118e+02
9.855213309479398731e+02
9.864565303179429065e+02
9.873916277735522726e+02
9.893266235124726791e+02
9.852615177327180618e+02
9.831963106326120396e+02
9.831310024107868912e+02
9.860655932661826455e+02
9.880000833980468542e+02
9.869344730059340236e+02
9.828687622897048186e+02
9.798029514495253807e+02
9.747370406858669867e+02
9.686710301995052532e+02
9.646049201915196818e+02
9.585387108632925219e+02
9.484724024165092260e+02
9.434059950531565164e+02
9.463394889755230679e+02
9.592728843861974610e+02
9.832061814880694328e+02
1.005139380484326921e+03
1.031072481578457882e+03
1.074005484974247793e+03
1.127938390875779987e+03
1.175871199487434524e+03
1.205803911013888182e+03
1.214736525660113330e+03
1.195669043631377463e+03
1.143601465133242527e+03
1.074533790371564237e+03
1.018466019552491844e+03
9.813981528824668885e+02
9.613301905682230881e+02
9.572621328167851971e+02
9.611939798354692357e+02
9.671257318318810121e+02
9.700573890139155537e+02
9.729889515897569936e+02
9.729204197678776609e+02
9.728517937570373988e+02
9.707830737662828824e+02
9.747142600049471639e+02
9.756453526826487632e+02
9.735763520092915542e+02
9.725072581950634003e+02
9.734380714504360412e+02
9.703687919861642968e+02
9.752994200132856122e+02
9.752299557431186940e+02
9.761603993872641922e+02
9.750907511576024262e+02
9.750210112662942947e+02
9.719511799257792291e+02
9.738812573487759892e+02
9.738112437482807309e+02
9.717411393375671196e+02
9.736709443301850797e+02
9.726006589399610220e+02
9.715302833809962522e+02
9.714598178676670841e+02
9.733892626146237035e+02
9.753186178367894854e+02
9.752478837493607671e+02
9.731770605678058246e+02
9.731061485078645319e+02
9.740351477855469966e+02
9.749640586171340146e+02
9.758928812191752513e+02
9.748216158084896961e+02
9.707502626021639571e+02
9.706788218175522616e+02
9.706072936722757731e+02
9.695356783842216828e+02
9.704639761715421855e+02
9.713921872526550487e+02
9.683203118462416796e+02
9.682483501712468978e+02
9.681763024468785943e+02
9.691041688926064808e+02
9.700319497281620897e+02
9.689596451735374103e+02
9.668872554489845470e+02
9.668147807750151514e+02
9.677422213723999675e+02
9.666695774621671262e+02
9.675968492656029412e+02
9.695240370042497489e+02
9.694511408999065907e+02
9.683781611746275075e+02
9.693050980507214263e+02
9.692319517507513638e+02
9.711587224975335175e+02
9.700854105141370383e+02
9.700120160238827793e+02
9.659385392503431831e+02
9.668649804173411439e+02
9.687913397489498948e+02
9.707176174694913016e+02
9.696438138035365455e+02
9.675699289759040767e+02
9.664959632116602961e+02
9.684219167361172822e+02
9.683477897748339274e+02
9.702735825536133234e+02
9.681992952985038983e+02
9.671249282357974835e+02
9.660504815920288593e+02
9.679759555939755273e+02
9.699013504686564602e+02
9.718266664433321012e+02
9.697519037455027728e+02
9.666770626029085633e+02
9.656021432435285305e+02
9.665271458955803610e+02
9.664520707875185508e+02
9.693769181480352017e+02
9.663016882060582020e+02
9.632263811907509989e+02
9.591509973315116895e+02
9.610755368579729065e+02
9.610000000000000000e+02
9.619243869876916051e+02
9.618486980513778235e+02
9.607729334216203370e+02
9.586970933292116115e+02
9.616211780051734195e+02
9.605451876807570670e+02
9.624691225874422571e+02
9.603929829569366348e+02
9.593167690211745366e+02
9.592404810123168772e+02
9.601641191627501257e+02
9.610876837050857375e+02
9.640111748721594722e+02
9.649345928970303703e+02
9.658579380129804122e+02
9.667812104535137223e+02
9.717044104523557735e+02
9.726275382434527046e+02
9.735505940609705249e+02
9.734735781392945455e+02
9.733964907130286974e+02
9.753193320169946219e+02
9.762421022862309883e+02
9.821648017559931532e+02
9.860874306617516822e+02
9.850099892391925778e+02
9.829324777242158007e+02
9.818548963529347020e+02
9.817772453616757957e+02
9.836995249869773943e+02
9.866217354655891540e+02
9.855438770344715067e+02
9.824659499307948636e+02
9.803879543919384787e+02
9.803098906554904488e+02
9.842317589592463491e+02
9.841535595412090061e+02
9.840752926395872464e+02
9.849969584927957840e+02
9.839185573394538551e+02
9.818400894183851051e+02
9.847615549686164513e+02
9.856829542293772874e+02
9.856042874400990286e+02
9.845255548404147703e+02
9.814467566701573560e+02
9.813678931693596041e+02
9.822889645782536263e+02
9.822099711372694628e+02
9.831309130870349691e+02
9.790517906683745650e+02
9.779726041223088941e+02
9.778933536900538002e+02
9.808140396130200998e+02
